time_s,raw_emg,filtered,smoothed,activation
0.0,-0.7887943814471305,0.007780284960598682,0.3682721646735982,0
0.0010005002501250625,-0.6896209605327686,-0.002285479832993653,0.39603801666589444,0
0.002001000500250125,-0.11783021124063298,0.658406916686035,0.404823156242233,0
0.003001500750375187,0.7559238833121752,1.2353460572607724,0.43257560515600163,0
0.00400200100050025,0.5131445495852174,1.2437105046547754,0.4382266163129263,0
0.0050025012506253125,1.9451533932135054,2.264315303038829,0.44439186043839335,0
0.006003001500750374,0.7777276460537306,1.4247142016412289,0.4476393057513505,0
0.007003501750875437,0.8031901558645574,1.0216036709899767,0.4567333701518062,0
0.0080040020010005,0.3175782214225855,0.8579113400340794,0.45696433771623873,0
0.009004502251125562,-0.8263499367483048,-0.6717301883137711,0.4771529573496253,0
0.010005002501250625,-0.7947221382195229,-0.3586716695550525,0.5005739249050848,1
0.011005502751375688,0.32546312594226423,0.43462307745653184,0.5138967540213129,1
0.012006003001500749,-0.3058818866803058,0.029362273912494435,0.5311616987997031,1
0.013006503251625811,-0.23484733050494033,-0.1528788544544612,0.5351221071704543,1
0.014007003501750874,-0.5612838855826341,-0.33004776864263985,0.5359017240143554,1
0.015007503751875937,-0.9271943467901058,-0.8600686639119732,0.552536597096503,1
0.016008004002001,-1.6255128147631077,-1.4972549472847554,0.561157993342183,1
0.01700850425212606,-0.8689759719957161,-0.8173342157439916,0.5631584676250478,1
0.018009004502251125,-0.3027644182861464,-0.2628615416130925,0.5655615974385808,1
0.019009504752376186,-1.0960647113677873,-1.079131759223482,0.5796608056916106,1
0.02001000500250125,-0.32978340551705726,-0.3435434369260768,0.5871916353793135,1
0.02101050525262631,0.6869994613698203,0.6401998706113177,0.5882295630504122,1
0.022011005502751375,1.008908779132553,0.9806168951778544,0.6188828678533425,1
0.023011505752876436,0.44510824494329987,0.3185575091138703,0.6390701314022392,1
0.024012006003001497,0.9388120116733752,0.9206518026392531,0.6447713930913381,1
0.02501250625312656,1.5814897307851448,1.3882925996148128,0.6542042651132076,1
0.026013006503251623,0.45404737205930595,0.439256978816926,0.6581043986907564,1
0.027013506753376687,1.599037513551378,1.3876224456884332,0.6676792080770496,1
0.028014007003501748,0.325076258585306,0.2825505578462335,0.6672616879457542,1
0.029014507253626812,-0.12656984376935032,-0.30826220627335255,0.6492715729575714,1
0.030015007503751873,0.2437064882127106,0.16237226564785778,0.6305577605028181,1
0.031015507753876938,-0.3066658372392576,-0.45470322002278635,0.5971281999105432,1
0.032016008004002,0.10583516710913365,0.011548378221627686,0.5839969352229327,1
0.03301650825412706,-0.8644643985887102,-1.0094309816693297,0.57555597428826,1
0.03401700850425212,-1.0945712746537362,-1.1710483777729737,0.5665438992009953,1
0.03501750875437719,-0.5007311698667131,-0.6661414558114054,0.5678261568337815,1
0.03601800900450225,-0.8069413627235095,-0.8632472389195143,0.5704763555935999,1
0.03701850925462731,0.38077100123126373,0.198020418537557,0.5623539718954716,1
0.03801900950475237,0.0946464267451177,0.03898084219505743,0.5709814800920894,1
0.03901950975487744,-0.6422976429824199,-0.8317436541073795,0.5817983190423692,1
0.0400200100050025,-0.3620068513061579,-0.43106981228399416,0.6018483562947633,1
0.04102051025512756,0.29210015184291444,0.10002371414324468,0.5984304860684618,1
0.04202101050525262,0.20801000041696333,0.12015649067665096,0.5877505586133311,1
0.04302151075537768,0.8954721934582512,0.7049604126514919,0.6175690653558138,1
0.04402201100550275,0.48124248998672525,0.3765414843851462,0.6165170507303007,1
0.04502251125562781,0.24478013856864522,0.0518963835549358,0.6012628562906777,1
0.04602301150575287,1.633100306956082,1.5326652401465144,0.6057234208901168,1
0.047023511755877934,1.2220826526167832,1.009363177444829,0.5992192426015454,1
0.048024012006002995,0.3561014785044032,0.28506308445494705,0.5882377061182945,1
0.04902451225612806,0.7097732435463767,0.47164360109347486,0.6044162480181239,1
0.05002501250625312,-0.1616326341631929,-0.2027869638380353,0.6042894611737588,1
0.051025512756378184,-0.23329001629521942,-0.4810259491476501,0.6015465471379714,1
0.052026013006503245,-0.6077077810300481,-0.6375309101212777,0.6146248231378453,1
0.05302651325662831,-0.09735333304118732,-0.33584030785162833,0.595163027011164,1
0.054027013506753374,-0.2696680822082774,-0.30801988191710494,0.5924412753209825,1
0.055027513756878435,-0.3728863081892484,-0.5928372734250867,0.5902513896294987,1
0.056028014007003496,-0.7093579672165218,-0.7681509672607059,0.6049366467293308,1
0.05702851425712856,-0.394991110343739,-0.5995556242563352,0.6052870402388179,1
0.058029014507253625,-0.32798098128858916,-0.40730758567084596,0.6323945828988912,1
0.059029514757378686,-0.5330879035953805,-0.7358430699530785,0.6148325343270228,1
0.06003001500750375,-0.40298413426756613,-0.4911816075459765,0.6002904024388256,1
0.06103051525762881,0.18908023265931648,-0.0285038925501217,0.6251370966266389,1
0.062031015507753876,0.5408387451798761,0.4607376837433802,0.6252245067109449,1
0.06303151575787894,0.9359951933419128,0.6937208019684511,0.6411431554319276,1
0.064032016008004,1.3896774621454684,1.33254963126234,0.6604970233395417,1
0.06503251625812906,0.9504660031618155,0.6891751525969014,0.6474252317434364,1
0.06603301650825412,1.000553126825549,0.9632585745282267,0.6406170941980273,1
0.06703351675837918,2.550148197148804,2.3082595528681265,0.6590352312560019,1
0.06803401700850424,-0.15603078844127616,-0.21026081033743466,0.673758398353619,1
0.06903451725862932,-0.152087178511764,-0.3164220372423261,0.6618691594665269,1
0.07003501750875438,0.6717116550764952,0.566571666898032,0.6808064323983003,1
0.07103551775887944,-0.2486803874514789,-0.31499095618275147,0.7080090578708993,1
0.0720360180090045,-0.28533783035681215,-0.4315400710153087,0.6881172854625912,1
0.07303651825912956,-1.1292617142105315,-1.127484604105339,0.6889001673231042,1
0.07403701850925462,-0.7620586308450892,-0.9143124604210007,0.6968504956661962,1
0.07503751875937968,-1.27539360414558,-1.251146897825441,0.6983117839993547,1
0.07603801900950474,-0.9622859109610038,-1.0931707788106286,0.7001805666793927,1
0.0770385192596298,-0.4305129187957825,-0.41453263935436485,0.7082415573897676,1
0.07803901950975488,-0.04028301219809349,-0.1464629733371535,0.7108151149645533,1
0.07903951975987994,-0.20313265992423668,-0.19876792169916396,0.7136429133023212,1
0.080040020010005,-0.7972501007500172,-0.8966351206394534,0.7330144947730759,1
0.08104052026013006,0.4627217511337296,0.4722228954971484,0.7365257484657168,1
0.08204102051025512,1.4785783222679685,1.3669255112252907,0.7371571358045135,1
0.08304152076038018,-0.16144306665395047,-0.13132855307591218,0.753011946640066,1
0.08404202101050524,0.5734673865960098,0.4439417833631187,0.7566842038673085,1
0.0850425212606303,1.8408213582586204,1.9084761652020663,0.754048923373378,1
0.08604302151075537,1.0265171973929421,0.8676177431348141,0.7572180360925467,1
0.08704352176088044,0.85943688398803,0.9939528545866926,0.7700972698889765,1
0.0880440220110055,1.2070485464871552,1.0066742375757587,0.765402855960768,1
0.08904452226113056,-0.03405642512060292,0.1781540743021095,0.7587307018916286,1
0.09004502251125562,0.31901824212860674,0.09066293501354189,0.740754480175373,1
0.09104552276138068,-1.2885977251528105,-1.0209305670419841,0.7518988491570003,1
0.09204602301150575,-0.626381286565259,-0.8563148455575034,0.7438637567760773,1
0.0930465232616308,-0.4030056048310929,-0.1104984682968832,0.7292594367663866,1
0.09404702351175587,-1.106082111973826,-1.3234051309738206,0.7540012817276946,1
0.09504752376188093,-1.7020357977044989,-1.4120276571848898,0.7490879186850844,1
0.09604802401200599,-0.3462007482549515,-0.5380766197311111,0.7407905622365645,1
0.09704852426213106,-1.2956487855189451,-1.0485072704704719,0.747416309366819,1
0.09804902451225612,-0.5428041045790322,-0.6825795016095454,0.7527972595647501,1
0.09904952476238119,-0.7052735208696688,-0.5447080177513934,0.7457912010164117,1
0.10005002501250625,-0.2300765464076342,-0.2962260978399418,0.7445812884663369,1
0.10105052526263131,0.8305055635591034,0.8840754846663886,0.7475722861041794,1
0.10205102551275637,0.7528669217367925,0.76620878886056,0.7519133760470441,1
0.10305152576288143,0.5305281993178215,0.47723022474002524,0.7572538269363491,1
0.10405202601300649,1.179691692903954,1.2765989554548416,0.7588545256649618,1
0.10505252626313155,0.9196665296703103,0.7683999580571369,0.7669363802070513,1
0.10605302651325663,0.621758741408525,0.7997203342005434,0.7495383167803283,1
0.10705352676338169,1.6091135376370815,1.3922961660339634,0.7534252156693377,1
0.10805402701350675,0.3643936253189586,0.5909204470329678,0.7378505003222804,1
0.10905452726363181,0.824772555078721,0.6040790452565523,0.7671115254794305,1
0.11005502751375687,-0.8706017310692411,-0.6496372435044129,0.7629683989059748,1
0.11105552776388193,-0.5067404513606821,-0.6724655823716112,0.7539261580487883,1
0.11205602801400699,-0.402243201914496,-0.22601698733295067,0.7629337037734566,1
0.11305652826413205,-0.26882988073698977,-0.3601130985114805,0.7504712731027343,1
0.11405702851425711,-0.5641796959079859,-0.43373854544956086,0.7497603675704733,1
0.11505752876438219,-1.203238423548873,-1.2463936016782715,0.7484562606991291,1
0.11605802901450725,-0.6759598767533952,-0.5615039554820769,0.7608443407148532,1
0.11705852926463231,-1.5361078975582412,-1.5780435523835923,0.7570222792756224,1
0.11805902951475737,-1.5739026525303754,-1.4473530584028387,0.7554956101036999,1
0.11905952976488243,0.13484098380698656,0.07075388511181308,0.7729899019986554,1
0.1200600300150075,0.018660834435887053,0.15170384447203356,0.779671503560007,1
0.12106053026513255,0.7144416719630763,0.646278312695481,0.7580468996846055,1
0.12206103051525762,0.5901730313762767,0.700587580911858,0.77146363249983,1
0.12306153076538268,0.8123709444951234,0.7771816766884194,0.7647061190601545,1
0.12406203101550775,0.7932532347055709,0.8538168329172572,0.7511157916238579,1
0.1250625312656328,1.3669709819748088,1.4006967797175713,0.7451709469298522,1
0.12606303151575787,1.3142333030233997,1.310225275953865,0.7440023718861419,1
0.12706353176588292,0.556532156487785,0.6815551838196154,0.7381036294642795,1
0.128064032016008,0.2920519090279798,0.2264979097677872,0.7359199020113472,1
0.12906453226613307,0.38802117624168236,0.6028606488036422,0.7287451773485067,1
0.13006503251625812,0.12930113590768988,0.026731949303297087,0.7262811318476083,1
0.1310655327663832,-0.934068011709052,-0.6665678399476211,0.7237949523084902,1
0.13206603301650824,-0.5047244961504985,-0.5881897438724213,0.725646758315627,1
0.1330665332666333,-1.8329585107159163,-1.59437981093342,0.727226756897519,1
0.13406703351675836,-0.25414322447047855,-0.23678545469033024,0.7180309039780726,1
0.13506753376688344,-1.5704737913079772,-1.45636412234274,0.7156015173148319,1
0.13606803401700848,-1.493106458340343,-1.3179950293682372,0.7054048429494874,1
0.13706853426713356,-0.31915472735675765,-0.37083132105057814,0.6959182709207561,1
0.13806903451725863,-1.2805799977340393,-0.9711289609627027,0.6958909329994583,1
0.13906953476738368,0.2818650795281931,0.11294873073489387,0.7170297188170596,1
0.14007003501750875,-1.0581175835508385,-0.7100669357997549,0.7207661593337057,1
0.1410705352676338,1.014939929644484,0.829827495080451,0.7221806998690308,1
0.14207103551775888,0.4960580967739797,0.7799813869613738,0.7288708554252435,1
0.14307153576788392,1.104745660179331,0.9852130630446524,0.7050646965144373,1
0.144072036018009,1.4810487139839066,1.6574852090414076,0.686960051849008,1
0.14507253626813404,0.36926799409580857,0.3307974634148132,0.6855688113788009,1
0.14607303651825912,1.1123521174259927,1.2089132604923343,0.7068775295358876,1
0.1470735367683842,0.70059698662189,0.7106315984867013,0.7051769991561253,1
0.14807403701850924,-0.06971810602770268,-0.003063129794714292,0.7059927629989184,1
0.14907453726863432,0.22167804131494637,0.24746578305110448,0.7194360756487079,1
0.15007503751875936,0.16875311762920858,0.23779734565443192,0.7201989110264022,1
0.15107553776888444,-0.612277051687492,-0.5891383635732683,0.6965419501433656,1
0.15207603801900949,-0.7388038461637803,-0.6570224162139418,0.6849197331370244,1
0.15307653826913456,-0.13459326651683945,-0.11849399159800617,0.6830155705337412,1
0.1540770385192596,-1.235013892064055,-1.1533966804099194,0.6848338267472917,1
0.15507753876938468,-0.6591697861741833,-0.6440909811012299,0.6737933136267545,1
0.15607803901950976,-0.958356796659008,-0.8923106345573821,0.6744436312044225,1
0.1570785392696348,-1.4714398202655508,-1.471296095128573,0.6657650746958894,1
0.15807903951975988,0.06449874004548528,0.1311278010606365,0.6607718438523736,1
0.15907953976988493,-0.4246228058612219,-0.48260971209451764,0.634748361276669,1
0.16008004002001,-0.23940226828327685,-0.1398035252371882,0.658709443111346,1
0.16108054027013505,-0.05533423581289304,-0.19813698093504467,0.646142222193301,1
0.16208104052026012,-0.35573190970244284,-0.22465009126806051,0.6218639295360722,1
0.16308154077038517,1.612733934750198,1.4170523893915499,0.6355274797401881,1
0.16408204102051024,0.5077243110638386,0.6205605712818658,0.6281981852166694,1
0.16508254127063532,1.492108165923821,1.3171206284445272,0.6269338564683173,1
0.16608304152076037,0.8569180568945377,0.8960117332927146,0.6222963583727222,1
0.16708354177088544,0.4857348894838793,0.3877356068432747,0.6082008724365272,1
0.1680840420210105,0.5873814234552325,0.5421208251313755,0.5926147985665371,1
0.16908454227113556,0.02010461540981634,0.001191861601458677,0.5762769817366369,1
0.1700850425212606,1.306956312969173,1.2171397523263674,0.5687301029821424,1
0.17108554277138568,0.5387407937337728,0.5612517937073687,0.596002969607738,1
0.17208604302151073,-0.6606196614728063,-0.7413757730515105,0.5977146509093904,1
0.1730865432716358,-1.474172225675713,-1.4493473091778926,0.6081087052670914,1
0.17408704352176088,-0.8538387816478248,-0.891958601801975,0.6232110561417481,1
0.17508754377188593,-0.22524993933724213,-0.21784873556574774,0.63299107979642,1
0.176088044022011,-0.738906229902631,-0.7291144256367983,0.63535480092526,1
0.17708854427213605,-0.5777095913526201,-0.5863470536554494,0.641449562891742,1
0.17808904452226113,-0.36140773285980765,-0.3174107204453153,0.6484102079098616,1
0.17908954477238617,0.06450154961492421,0.0508349927767799,0.6496553022087329,1
0.18009004502251125,-0.0037271154781685738,0.059247828186699936,0.6416155433892549,1
0.1810905452726363,-0.22404101793866554,-0.2326400145209659,0.6608315233253853,1
0.18209104552276137,-0.41207783637442075,-0.3385282016966332,0.6543806746610155,1
0.18309154577288644,0.2899237593706586,0.2932056821481898,0.6477579381553208,1
0.1840920460230115,1.35087367289588,1.4348395464241817,0.6634722550054724,1
0.18509254627313657,0.8075729997750278,0.8280030764404877,0.6568976456018841,1
0.1860930465232616,0.01004448598871488,0.10408039650680163,0.6547061542315306,1
0.1870935467733867,1.002612238503144,1.054008831256378,0.6520288361425072,1
0.18809404702351173,0.5100216702470847,0.6046642347867588,0.6498942682923089,1
0.1890945472736368,-0.04690879254572522,0.049732293317289455,0.640154031890194,1
0.19009504752376186,0.3853331433748227,0.47819203102000024,0.6462630123546971,1
0.19109554777388693,-0.010569444055326505,0.12505319827069605,0.6201769205791993,1
0.19209604802401198,-0.09963046320214497,0.0006776934618720754,0.6148373066086419,1
0.19309654827413705,-0.32346867783396827,-0.16832222154964205,0.6406332616276527,1
0.19409704852426213,-1.393677338793026,-1.2801412713166884,0.6465433396778613,1
0.19509754877438718,-1.845358035066042,-1.6944407946945903,0.6629552804972377,1
0.19609804902451225,-1.4266654925809015,-1.2944973255749503,0.6396656916013268,1
0.1970985492746373,-1.3432901747185242,-1.2303343163717524,0.6301063816008273,1
0.19809904952476237,-0.9219329332169319,-0.7581806735275551,0.6176285758427016,1
0.19909954977488742,-0.7747642456044687,-0.7364669657846987,0.5889250369730363,1
0.2001000500250125,-0.5636865645013368,-0.3559834020964252,0.5927448920065094,1
0.20110055027513754,0.9530803439723232,0.8938764618973668,0.6031723736175834,1
0.20210105052526262,0.7470821884101873,1.0050546671199228,0.5975144388282018,1
0.2031015507753877,-0.01688464595617567,-0.18074870654157799,0.6048209159229595,1
0.20410205102551274,0.4400749855534666,0.7514087394360132,0.6122721182348391,1
0.2051025512756378,1.8601169184670856,1.6048899779077526,0.6325714405746758,1
0.20610305152576286,0.22146539373376062,0.5697682013388954,0.6359115152433229,1
0.20710355177588793,1.4413221396228646,1.1401592698438396,0.6412126670473837,1
0.20810405202601298,0.5677169954065963,0.9168436435682146,0.6394084691519429,1
0.20910455227613806,0.44918445530629614,0.15387924191510105,0.6372741888235561,1
0.2101050525262631,-0.2922759979412397,0.030228956719515143,0.6326024447635639,1
0.21110555277638818,0.32182956037061966,0.0642710764838717,0.6274934056634062,1
0.21210605302651325,-0.16504384033114938,0.11792169875814607,0.6451256784670297,1
0.2131065532766383,-0.7256006158268962,-0.9300405692858033,0.6416535264151547,1
0.21410705352676337,-1.1577433989108539,-0.9260095945070151,0.6417356381675059,1
0.21510755377688842,0.1495404645457964,0.012816039669643703,0.6522067591999926,1
0.2161080540270135,-0.7862274221525419,-0.6290310347648489,0.6436337834660576,1
0.21710855427713854,-1.6292504212199725,-1.6775333577938127,0.6504341988251964,1
0.21810905452726362,-0.8904955867028936,-0.8376247276418067,0.6600183746533912,1
0.21910955477738867,0.758736640692526,0.8217889025702788,0.6760370048756041,1
0.22011005502751374,0.02826911105044491,-0.05266030753081602,0.6672976571011319,1
0.22111055527763882,-0.2767353954428454,-0.08328629368240079,0.6421479986698779,1
0.22211105552776386,0.3407788958917585,0.11748548514522267,0.6536698616831836,1
0.22311155577788894,-0.3255644717244399,-0.01417036569462446,0.6509994963839806,1
0.22411205602801398,1.4108878635366195,1.0829513534756325,0.6522981764968022,1
0.22511255627813906,0.36115153962050706,0.7392228161194485,0.6523358102429424,1
0.2261130565282641,0.809828372716924,0.4462176861677135,0.6487640030277924,1
0.22711355677838918,0.5726315263465557,0.9516709083933351,0.635528628769345,1
0.22811405702851423,1.013541946786439,0.6899708360392941,0.6308675695224079,1
0.2291145572786393,-1.3764204244120226,-1.0658011097686195,0.6371472991941394,1
0.23011505752876438,0.4376624195977945,0.22625156161905213,0.637537685155559,1
0.23111555777888942,0.31173028414563386,0.497697604724013,0.6464294136614175,1
0.2321160580290145,-0.18159671922453924,-0.24831830692459167,0.6739335524245856,1
0.23311655827913955,-0.24518795437509655,-0.18649166572884945,0.6717464272714427,1
0.23411705852926462,-1.2442246701035344,-1.2012523434245668,0.673179806262575,1
0.23511755877938967,-0.5561330336969207,-0.5725511214325952,0.6865064438297622,1
0.23611805902951474,-1.0627117231778438,-0.9856940366879828,0.6867517980636991,1
0.2371185592796398,-0.8561441894253126,-0.8804012286626313,0.6893716323105921,1
0.23811905952976486,-0.6492279196324409,-0.6087698224043148,0.7028192977603214,1
0.23911955977988994,-0.5905242747471873,-0.5732883449416265,0.7089813138171835,1
0.240120060030015,-0.011571300240526237,-0.049543244323252744,0.714668679953742,1
0.24112056028014006,0.37960988954561087,0.4650739662276381,0.752286601337632,1
0.2421210605302651,0.6100291889241392,0.4798864848716113,0.7638717377772807,1
0.24312156078039018,0.8070655762734572,0.9692537326602872,0.7468291126626223,1
0.24412206103051523,1.0488285158475923,0.8431738825930726,0.7323684734662931,1
0.2451225612806403,0.21712951043510742,0.43695787313189605,0.7191899714045336,1
0.24612306153076535,2.09807859673651,1.8705904762402334,0.7321318178049174,1
0.24712356178089043,0.8654851076078919,1.0968160514115963,0.736091296612118,1
0.2481240620310155,1.0071267484277242,0.8231146791686383,0.7499300412899548,1
0.24912456228114055,0.533498557188371,0.7383486530917089,0.7596252200319563,1
0.2501250625312656,-0.06969381357201179,-0.1773930413389322,0.7601711427300215,1
0.2511255627813907,-0.4041976428529831,-0.2321077489749982,0.7650259424799084,1
0.25212606303151575,-0.7341589384532669,-0.7720017047730601,0.7605786261408496,1
0.2531265632816408,-0.643107030660123,-0.4947351901281563,0.758962156365536,1
0.25412706353176584,-0.7817444958831631,-0.7709280375069931,0.7484648646549309,1
0.25512756378189094,-2.174518107217237,-2.0494764032006803,0.7322644661749472,1
0.256128064032016,-1.9864603160042904,-1.9449751394973034,0.7396628226771048,1
0.25712856428214104,-1.124268197315972,-1.030803012186687,0.7311014533023306,1
0.25812906453226614,-1.043066597118556,-0.9885125931248279,0.7345530740835815,1
0.2591295647823912,-0.8765434918048194,-0.8202111202744609,0.7496325694681792,1
0.26013006503251623,-0.011422573562052257,0.04249666841636235,0.727278207626865,1
0.2611305652826413,0.1785867390189132,0.19526278882851544,0.7385588882898126,1
0.2621310655327664,0.7441369578688112,0.7903049712446143,0.7404174719889902,1
0.26313156578289143,1.2496825844280661,1.2381413721289163,0.7302823557433679,1
0.2641320660330165,1.1864854596901508,1.2103779013349336,0.73926989883948,1
0.2651325662831415,1.8978274581039356,1.8937121088641464,0.7311318752281228,1
0.2661330665332666,1.2306964740170505,1.2082878567472837,0.7343707268497848,1
0.2671335667833917,0.7789603481205895,0.8254021020608955,0.7283938941842947,1
0.2681340670335167,0.1964302674956276,0.11459276782533717,0.7271020524510977,1
0.2691345672836418,-0.2793937094397173,-0.1628637994823035,0.7234206990631991,1
0.27013506753376687,0.8247042318582769,0.6997526275500084,0.7303991944368877,1
0.2711355677838919,-0.45205878689092077,-0.2812602340424344,0.7395883837476408,1
0.27213606803401696,-0.6766207284513456,-0.809422719037055,0.7288482310401296,1
0.27313656828414207,-0.6938483959560993,-0.498929302794709,0.7331753821682464,1
0.2741370685342671,-0.9996792958462255,-1.11024748837889,0.7405497926744845,1
0.27513756878439216,-1.169662483388882,-0.9819628036137923,0.7318879919789486,1
0.27613806903451726,-0.1656328020459933,-0.2238518692147669,0.7341391416812971,1
0.2771385692846423,-1.009536005147187,-0.870847419627657,0.7338416737520637,1
0.27813906953476736,0.1359249271154933,0.1651062505090431,0.7390351565445961,1
0.2791395697848924,0.1999564657186314,0.25578118576943903,0.737004369182224,1
0.2801400700350175,-0.7230101924104845,-0.5961693867269284,0.7508716679206515,1
0.28114057028514255,-0.050516811028478215,-0.06962913598530562,0.728411318838607,1
0.2821410705352676,0.22716555580578307,0.42089934598713363,0.7035661127381792,1
0.28314157078539265,0.9869258329195904,0.940466434958735,0.6960030909029405,1
0.28414207103551775,-0.12291988314049562,0.08353425135885822,0.6933474381239382,1
0.2851425712856428,1.149906214777152,1.1365851545799788,0.7032296767650386,1
0.28614307153576785,0.9054800681106171,1.0786232216468628,0.7073829547693379,1
0.28714357178589295,0.3205012607513419,0.3736454163815113,0.7104275754908911,1
0.288144072036018,0.9226547748032241,1.0581469772099228,0.7144226409285952,1
0.28914457228614304,-0.2712701601168864,-0.16638716437376788,0.724204462273888,1
0.2901450725362681,-0.3357127270288023,-0.21148582540635158,0.7133372116867508,1
0.2911455727863932,-0.2910212436008468,-0.16623233295313145,0.6861425445160311,1
0.29214607303651824,-0.5420027198147085,-0.41529439821175884,0.6878898570374185,1
0.2931465732866433,-0.9151426126239082,-0.7851860632653603,0.6835914729554113,1
0.2941470735367684,-1.302992277662846,-1.1920986512774996,0.6907779758046968,1
0.29514757378689344,-1.0403680178610701,-0.8964173386695529,0.6899706494192837,1
0.2961480740370185,-1.3848829267581535,-1.3335828408646773,0.6789831342910294,1
0.29714857428714353,-1.4948533458909745,-1.3131736078174283,0.6742762149217744,1
0.29814907453726863,-1.1338419959144082,-1.1918352044805467,0.6699479544960698,1
0.2991495747873937,0.06387154992669547,0.30525861831491896,0.6662890155616387,1
0.3001500750375187,0.4860154932748109,0.2899505264563558,0.659834069553596,1
0.3011505752876438,-0.07952043247983104,0.21723435251332346,0.658103373476552,1
0.3021510755377689,1.3434986873336308,1.0316758443996787,0.6904585939042754,1
0.3031515757878939,0.09080975191901208,0.39319582200955544,0.7023843835216578,1
0.30415207603801897,1.8176890930914205,1.4642929744283673,0.7015898139929861,1
0.3051525762881441,0.6907865713091519,0.926458949098457,0.7013617035908963,1
0.3061530765382691,1.0170686546010106,0.7027148344759074,0.6924454889509378,1
0.30715357678839417,0.5313384245733926,0.6526519204247567,0.693217040413968,1
0.3081540770385192,1.0900596240903146,0.8557299541747123,0.685472496258,1
0.3091545772886443,1.3058909635033802,1.3143230523294775,0.67419667518843,1
0.31015507753876936,-0.08470174345314013,-0.2501605686313267,0.6901285096856785,1
0.3111555777888944,-0.2816729594295677,-0.34749382490618147,0.6928548665259302,1
0.3121560780390195,-0.8547923560439898,-0.9900582431298202,0.6965425034746398,1
0.31315657828914456,-1.624731897346483,-1.7272324393935576,0.7207938721213307,1
0.3141570785392696,-0.5300947183774154,-0.6670153719780727,0.7141954112231631,1
0.31515757878939465,-0.41479803481031596,-0.5339787503281543,0.7210461055870047,1
0.31615807903951976,-1.1306135546679743,-1.2956534828166553,0.718302971678606,1
0.3171585792896448,-0.49392472467201975,-0.6104828979605377,0.7159480376456276,1
0.31815907953976985,-0.25438250376606086,-0.4739179102896136,0.7088033519773594,1
0.3191595797898949,-0.022465873304174433,-0.12249748021164936,0.7041839283432262,1
0.32016008004002,0.4272486284988183,0.15037687113729803,0.709791545034006,1
0.32116058029014505,0.14077759640318227,0.04591426557968081,0.7089385908644191,1
0.3221610805402701,0.8916603222370392,0.5930096977518209,0.6928804506256603,1
0.3231615807903952,0.4415763688800574,0.31598235607314534,0.6874279875268834,1
0.32416208104052024,1.04604449299032,0.7875001879767634,0.6721105143284875,1
0.3251625812906453,1.0920841728018515,0.8954279997615926,0.6695101821239655,1
0.32616308154077034,1.9996686624881135,1.841612890600943,0.6709995201862158,1
0.32716358179089544,1.7533901173933875,1.4671369004967716,0.6692116236582649,1
0.3281640820410205,0.1545428227307597,0.12537777407545875,0.6794568228022666,1
0.32916458229114554,0.5989899532851546,0.244375665664946,0.7052672722179008,1
0.33016508254127064,0.06551721680585981,0.1503586547290045,0.6878958559819202,1
0.3311655827913957,0.48051197461245815,0.10820670913681807,0.6875674012798354,1
0.33216608304152073,-0.18937953974674254,-0.03367213818873677,0.6864771948437824,1
0.3331665832916458,0.7080160558686203,0.37667538148022656,0.6881782606331402,1
0.3341670835417709,-1.0524110956554402,-0.8801259762212826,0.6896003001115452,1
0.33516758379189593,-1.028634473474975,-1.2729029965925678,0.6660777390252607,1
0.336168084042021,-1.412779688823156,-1.2630050690823393,0.6647454412078803,1
0.337168584292146,-1.436914237102924,-1.5862138487160595,0.6779736209875613,1
0.3381690845422711,-0.852830471603595,-0.7282239323015431,0.6761030181936553,1
0.3391695847923962,-0.4243530619612441,-0.5089218825658475,0.6473508848066488,1
0.3401700850425212,-0.19725891376388716,-0.07432912998641597,0.6480999619369522,1
0.3411705852926463,0.11123135805115492,0.04848563130421152,0.6530938359957263,1
0.34217108554277137,-0.09316642079262727,0.05806011479835241,0.6453213606607875,1
0.3431715857928964,0.6330149821031906,0.5542148815586985,0.6573392243721216,1
0.34417208604302146,1.2637304898378459,1.4724794858164927,0.6809931364050242,1
0.34517258629314657,0.9765873492052115,0.8537696301902102,0.6907415195860845,1
0.3461730865432716,0.244814871020399,0.5306758289267293,0.6957983591017519,1
0.34717358679339666,1.2139513359195662,1.0405504528785878,0.7013296710713859,1
0.34817408704352176,0.06848164566064996,0.42596154456074997,0.7118411746130014,1
0.3491745872936468,0.3828750623536171,0.1752420080888176,0.7293049893821539,1
0.35017508754377186,-0.03980528041840095,0.3644174295688752,0.7323628771066898,1
0.3511755877938969,0.3474320191343803,0.12783952611577226,0.7252960682392516,1
0.352176088044022,-1.9631125964072837,-1.5439358015997655,0.6909420405731922,1
0.35317658829414705,-1.4677304313252497,-1.683718292791263,0.6775774476635806,1
0.3541770885442721,-1.0050907485520395,-0.5957221626293339,0.6879655779078729,1
0.35517758879439715,-0.6936082495204678,-0.9100362139942204,0.6945229126026987,1
0.35617808904452225,-1.0386411196308905,-0.648204512673262,0.7030036073710912,1
0.3571785892946473,-0.5087456513556445,-0.7377052098926454,0.7080235177526293,1
0.35817908954477234,-1.2866896681483713,-0.9268319280949637,0.7129056536241682,1
0.35917958979489745,0.09846167862399569,-0.1381949980152542,0.7172430407107555,1
0.3601800900450225,-0.12334697496465907,0.18354567776229763,0.7276210440182473,1
0.36118059029514754,1.2334974298877435,1.0089028138902392,0.7344461667046389,1
0.3621810905452726,0.6582272672944269,0.89652810343452,0.7423860415206235,1
0.3631815907953977,0.4881544513813467,0.289625770043235,0.7332199343171406,1
0.36418209104552274,0.5259943811215184,0.7044692284932388,0.7217374219600883,1
0.3651825912956478,0.9572809326770689,0.7836724532668642,0.7249583588633473,1
0.3661830915457729,0.7611517862974542,0.9070297160697093,0.735908802182202,1
0.36718359179589793,1.367078949422424,1.2113760835272442,0.7487295759351476,1
0.368184092046023,1.5138363952904794,1.6566135119347463,0.7539452727847692,1
0.36918459229614803,0.7526775183698861,0.6099166392646611,0.7685145061220432,1
0.37018509254627313,-0.5605663185822539,-0.40321884692066734,0.7649441192954073,1
0.3711855927963982,-0.19884083763770644,-0.3224798640613819,0.7558892553075165,1
0.3721860930465232,-1.28541448028651,-1.1185848748325968,0.777660859773238,1
0.3731865932966483,-1.0992354925514582,-1.189173094530771,0.7686235227620316,1
0.3741870935467734,-1.1026241496096543,-0.9403945742035545,0.7651363066811351,1
0.3751875937968984,-0.4889469204616037,-0.54208755638968,0.7623855790271554,1
0.37618809404702347,-0.27810255594306077,-0.12391150729797701,0.7746558147105277,1
0.37718859429714857,-0.7679312958657983,-0.7989072550161999,0.7798673545608547,1
0.3781890945472736,-0.7978646753698985,-0.644784286290071,0.7542376565987063,1
0.37918959479739867,-0.5467556358107728,-0.5722424004062325,0.7378827210489559,1
0.3801900950475237,-0.7277414298565118,-0.5743933931486329,0.7509374389421714,1
0.3811905952976488,0.3792553995566529,0.35920222821371844,0.7485117314197466,1
0.38219109554777386,0.13280185421136304,0.27777893176568286,0.7434705316972388,1
0.3831915957978989,0.598316390568034,0.5935447358095898,0.7358235611320033,1
0.38419209604802396,1.2629359829363178,1.3990261415958736,0.7204628314517082,1
0.38519259629814906,1.6033419699083495,1.61415913091215,0.7210540313682053,1
0.3861930965482741,1.5161792049741833,1.659998809881564,0.7272757919654358,1
0.38719359679839915,1.1133319687232943,1.1279084885419246,0.7103803012861527,1
0.38819409704852426,-0.021235936815999557,0.15409831444891764,0.7101589855172826,1
0.3891945972986493,-0.6687290039615725,-0.669968727728806,0.7108332410581866,1
0.39019509754877435,-0.8513087287083869,-0.6218512959291473,0.7059001380143276,1
0.3911955977988994,-0.6470416973011335,-0.6895243189514838,0.7231294036024934,1
0.3921960980490245,-0.616000413183962,-0.31884495727943724,0.7315772170577294,1
0.39319659829914955,-1.1799479392552281,-1.2826765484224036,0.7109270300901087,1
0.3941970985492746,-1.6447736822315602,-1.2939601444846978,0.6821057416490279,1
0.3951975987993997,-0.2514199391900278,-0.4010264307956694,0.6765104762691208,1
0.39619809904952474,-1.965698445801333,-1.6192560522127948,0.6708695613563286,1
0.3971985992996498,-0.4423835572651478,-0.5886836023182729,0.6761311276738725,1
0.39819909954977484,-0.519496044738163,-0.2516007405159202,0.6742642492311794,1
0.39919959979989994,0.060311843498159934,-0.03770562538984076,0.6580165237931392,1
0.400200100050025,0.8285811458014095,0.9779292137374883,0.6542664815130758,1
0.40120060030015003,0.42719625688527674,0.3884165186321174,0.663907858980996,1
0.4022011005502751,0.23193305756879062,0.2624509034923482,0.669934069821488,1
0.4032016008004002,0.8523070066727735,0.865971515303742,0.674061628045408,1
0.40420210105052523,1.3207464681306527,1.2484580572901087,0.6663976673717243,1
0.4052026013006503,0.7316028322190335,0.7887508378729883,0.6561145190619839,1
0.4062031015507754,0.5495350779054885,0.3961445265478691,0.6554328709190145,1
0.4072036018009004,0.26442609903931913,0.35535668163086986,0.6559504262392558,1
0.4082041020510255,0.37113992269748186,0.1587954440802041,0.6601043861640461,1
0.4092046023011505,0.05449526549798889,0.16775499384011372,0.6568919589300626,1
0.4102051025512756,0.7444736147398682,0.4946337076238251,0.6316597981961123,1
0.41120560280140067,-0.28372391253396434,-0.16412827992608045,0.6273277226854654,1
0.4122061030515257,-0.6152800502664996,-0.8854623149910178,0.6093677332535333,1
0.4132066033016508,-0.4339118967477203,-0.3233385470884286,0.5965576887550225,1
0.41420710355177587,-0.1769188021472976,-0.45781407630029197,0.6237744246059413,1
0.4152076038019009,-1.7296328349545855,-1.6451357326751603,0.6219903000066799,1
0.41620810405202596,-1.0478417546736984,-1.3294203888315024,0.6124193870842579,1
0.41720860430215106,-0.21878009533577714,-0.17886673514621015,0.6222540582806408,1
0.4182091045522761,0.058925073048072485,-0.2155490898807087,0.6380384025697015,1
0.41920960480240116,-0.3138326951986104,-0.33015337026930647,0.6230084263226686,1
0.4202101050525262,0.37993140521944824,0.12117310128105568,0.604151141851607,1
0.4212106053026513,0.6676376353067477,0.5855581799385781,0.6126874404307472,1
0.42221110555277636,1.2519439084907722,1.0252409526979418,0.6005797250820363,1
0.4232116058029014,0.5303544849711272,0.37678682262876767,0.6093924062405744,1
0.4242121060530265,0.93388716858679,0.7528924602003779,0.6226016741431234,1
0.42521260630315155,1.2352676109975602,1.0241564297856913,0.6321108399597909,1
0.4262131065532766,0.5711535757855575,0.4252220493225773,0.6136250699461269,1
0.42721360680340165,1.2285254538564878,1.0052851662121984,0.6183634348692295,1
0.42821410705352675,-0.11526105064857173,-0.26158625260588947,0.623373325875675,1
0.4292146073036518,0.24239934989759482,0.058084984919208216,0.6114471231353454,1
0.43021510755377684,0.7088127998033716,0.5403109860001589,0.6146357138734856,1
0.43121560780390195,-0.2510867366891967,-0.385079994225785,0.6233597115786638,1
0.432216108054027,-0.3155395402143026,-0.48547692800519504,0.6280870254624161,1
0.43321660830415204,-0.3126288576797379,-0.43292337411041903,0.6418364676823062,1
0.4342171085542771,0.257648586529718,0.1374181048983646,0.6614982104433872,1
0.4352176088044022,-1.2308092664624766,-1.397555355379804,0.6636176462267389,1
0.43621810905452724,-0.742090185253476,-0.7619993382849589,0.6555971612789009,1
0.4372186093046523,-0.2328798182193893,-0.48740626361637934,0.6539503074422177,1
0.43821910955477733,-1.6023502636558078,-1.5149351069948567,0.6385111749137958,1
0.43921960980490243,-0.25446122829883444,-0.5807624977657346,0.6405698018128269,1
0.4402201100550275,-0.29203866003505546,-0.14330564980805038,0.669806677046464,1
0.4412206103051525,1.520710499493255,1.1812578787706332,0.664107881664321,1
0.44222111055527763,0.9587532499568288,1.1080621717324652,0.6637849059230841,1
0.4432216108054027,0.8231038780735221,0.5311777360707588,0.6888724712102147,1
0.4442221110555277,0.24177250993035426,0.3510959209316221,0.6983285632283929,1
0.44522261130565277,1.033885109120223,0.8278413597526795,0.7142809242419865,1
0.4462231115557779,0.9535217348553342,1.013870284777248,0.7319860533584324,1
0.4472236118059029,1.1429920850048707,1.0293176602451781,0.7428953510435378,1
0.44822411205602797,0.8755619009165202,0.912064135643372,0.7238217529938338,1
0.44922461230615307,-0.46125905782250054,-0.5131639162232113,0.7475411267020354,1
0.4502251125562781,-0.009532804153124505,0.05364071305428875,0.7522711593438315,1
0.45122561280640316,-0.5869201385656141,-0.6253347647872505,0.7450606360284862,1
0.4522261130565282,-0.6396708308738889,-0.5129454538146171,0.7546762768586024,1
0.4532266133066533,0.3165120514456279,0.2696613782872644,0.7443557342346968,1
0.45422711355677836,-1.586344611086818,-1.4078875941971138,0.7627044657752213,1
0.4552276138069034,-1.184813791454555,-1.2249507231319026,0.777271432283773,1
0.45622811405702846,-0.8234862931987861,-0.6325102207354859,0.7727436410593638,1
0.45722861430715356,-1.0272423890602815,-1.042828792625371,0.7774190264689015,1
0.4582291145572786,-1.3149424577743505,-1.1418825821342495,0.7705532855752851,1
0.45922961480740365,-0.28907846725690456,-0.27372678300770525,0.7695130234236248,1
0.46023011505752875,-0.046074517114662344,0.09360946023193017,0.7792518933198883,1
0.4612306153076538,0.03800662340373062,0.08178558809192177,0.759480087511455,1
0.46223111555777885,0.0012339927886856339,0.11350568856992171,0.762140607346838,1
0.4632316158079039,0.37087302691786334,0.42626989203997634,0.7662310799648119,1
0.464232116058029,1.8040122694356162,1.9196578379821554,0.753641466805839,1
0.46523261630815405,1.318084846787637,1.3601959635680108,0.7579722202252018,1
0.4662331165582791,1.160261626968766,1.3132716017696549,0.7669134464673233,1
0.4672336168084042,1.409557814448485,1.4332449995027354,0.7481916793901667,1
0.46823411705852924,0.49642694115429,0.6883536907896227,0.7294001867284223,1
0.4692346173086543,1.0915866751480685,1.1277714209489886,0.7218188874295826,1
0.47023511755877934,-1.2062261688383589,-1.0064295571033484,0.730116394033002,1
0.47123561780890444,-1.2128884563306463,-1.1310230641938444,0.7345899465375646,1
0.4722361180590295,-0.11898462552208156,0.07156105021274234,0.7230475808892259,1
0.47323661830915453,-1.677930614985987,-1.5627555080388507,0.7292105482338954,1
0.4742371185592796,-1.1883149454563144,-0.9893940922901787,0.7183641609887239,1
0.4752376188094047,-0.7724382232844657,-0.6636302640184214,0.7090815248849414,1
0.47623811905952973,-1.1227285644402978,-0.9060040908283963,0.7081383805721532,1
0.4772386193096548,-0.5753881931851607,-0.4892580350169224,0.7040376793776973,1
0.4782391195597799,-1.3903420522397294,-1.1790228296321135,0.7076704814914739,1
0.4792396198099049,-0.8600687206130417,-0.7864333103467969,0.7255363009050004,1
0.48024012006003,0.1413881092884134,0.3139214247796952,0.7110497611581499,1
0.481240620310155,0.5421952365662097,0.6188492647026668,0.7053519329766258,1
0.4822411205602801,0.033321748714502664,0.14218988332437632,0.7244493223351041,1
0.48324162081040517,0.2865111418813967,0.3809102665274024,0.7167071690779346,1
0.4842421210605302,0.5913958191199882,0.6243615997115388,0.697499750481482,1
0.4852426213106553,0.2881004233424619,0.4089650649581406,0.6930437103790077,1
0.48624312156078037,0.9331761253053421,0.8950253300541064,0.7185286668714306,1
0.4872436218109054,0.542955068896213,0.6919298945150755,0.7297842268885509,1
0.48824412206103046,0.9851943414504498,0.8854544490462134,0.7275817522641769,1
0.48924462231115556,0.609798248374976,0.7973001687338781,0.7356695716046192,1
0.4902451225612806,-0.4235767786365195,-0.5903669619141244,0.712479212088005,1
0.49124562281140566,-0.4955338024808769,-0.2451695249128023,0.6951151089093496,1
0.4922461230615307,0.415975572111428,0.16848753864524335,0.687826993374568,1
0.4932466233116558,-0.17638053759632788,0.1521127711287702,0.6889426431909687,1
0.49424712356178085,-0.4412627631560476,-0.7659712511026011,0.7053642418026836,1
0.4952476238119059,-1.442068213649659,-1.051518984980803,0.6882762710710911,1
0.496248124062031,-0.0712665339319285,-0.43675200236031314,0.6834293009297802,1
0.49724862431215605,-1.7374078689589867,-1.3374660274786514,0.6682040003081685,1
0.4982491245622811,-0.027922326423007904,-0.36974477338479317,0.6906648223643571,1
0.49924962481240615,-0.29671237308264187,0.049032111034084225,0.6708424818777213,1
0.5002501250625312,0.2540911179794976,-0.006483497414882661,0.6530826019674828,1
0.5012506253126563,0.16447234071614197,0.4202997050644621,0.6581783939009244,1
0.5022511255627814,0.8463453887498452,0.6945855595034456,0.650146525809063,1
0.5032516258129064,0.9975962260638519,1.1629523489635851,0.6555519205264374,1
0.5042521260630315,0.7225503263142654,0.6835606068545952,0.6516340426229505,1
0.5052526263131566,0.846535106576898,0.9400593140556968,0.6459647243012495,1
0.5062531265632816,1.5178618911453636,1.5873796886593943,0.6457542338175467,1
0.5072536268134067,0.6135907152826837,0.655721129766901,0.6353340755555823,1
0.5082541270635317,0.013948464818234863,0.18151165231161814,0.6371346832270548,1
0.5092546273136568,0.03310201124717577,0.05092477788398925,0.6454351111259994,1
0.5102551275637819,-1.6007674380189398,-1.3678572848530774,0.640896129954179,1
0.5112556278139069,-0.6753914658800417,-0.6445635889479404,0.6558150083064006,1
0.512256128064032,-0.25191094235316824,0.0033819573512207024,0.6549815390043392,1
0.5132566283141571,-0.8949880927771522,-0.8306608590620891,0.6560732787277639,1
0.5142571285642821,-1.0108395012819211,-0.7601398621514419,0.6501097819663968,1
0.5152576288144072,-0.5854812035846646,-0.4919908046352399,0.6424062653302061,1
0.5162581290645323,-1.1793547037494987,-0.9488658250305815,0.6312764155286583,1
0.5172586293146573,-1.5978689562500281,-1.4890274903227634,0.6341586238985563,1
0.5182591295647824,-1.7109564371613413,-1.5094336213753796,0.6397336548683825,1
0.5192596298149074,-0.3765102988143971,-0.2733728843693611,0.6482516743610646,1
0.5202601300650325,0.5840986939111252,0.7640810500377951,0.6500292005595424,1
0.5212606303151576,0.30499820532555993,0.3697580331132583,0.6329323879275662,1
0.5222611305652826,1.0092832424317093,1.1946021530221733,0.6584252605652635,1
0.5232616308154077,0.5774490761181041,0.5716384837070676,0.650149488224995,1
0.5242621310655328,-0.11001744924598933,0.10140009677825093,0.6442529766550504,1
0.5252626313156578,0.9946307067950504,0.9184198606904943,0.6585570210876074,1
0.5262631315657829,0.2782905767826772,0.5044106862353298,0.6783289425189414,1
0.527263631815908,0.8714085438044954,0.7595277708856487,0.7026934483359403,1
0.528264132066033,0.7722529113186365,0.9831289344577645,0.7043819481968248,1
0.5292646323161581,0.6087443844145108,0.5029673942617423,0.7014306496748313,1
0.530265132566283,-0.4692727425662626,-0.3033969005945619,0.7008528365688664,1
0.5312656328164082,0.16352804110015612,0.0978413516044474,0.6935550943434043,1
0.5322661330665333,-0.33108269193163925,-0.23222026689799702,0.675943981356896,1
0.5332666333166582,-0.7829349222087865,-0.7959316614746329,0.6631002128759201,1
0.5342671335667833,-0.42965207755596113,-0.39741254112052243,0.663295526942708,1
0.5352676338169085,-1.1769780788149427,-1.1549089825692218,0.6705885679611205,1
0.5362681340670334,-0.8370915821396743,-0.8533518649510342,0.6461509391849107,1
0.5372686343171585,-0.779248799257062,-0.746516880686309,0.6461249645679378,1
0.5382691345672836,-0.5303836837581551,-0.587279610977852,0.6611019826825846,1
0.5392696348174086,0.37134211542331547,0.412124336924348,0.6660635860755292,1
0.5402701350675337,0.07623039381787321,-0.033874471836734366,0.6719899480662714,1
0.5412706353176588,0.3258840660360488,0.3892799434076981,0.693487047657464,1
0.5422711355677838,0.6196135845693511,0.4472390871365556,0.7038875058399625,1
0.5432716358179089,0.49074631403604707,0.5780137457628755,0.6765885677839067,1
0.5442721360680339,1.0663714548393128,0.8548475610264966,0.6486861549830046,1
0.545272636318159,0.11655205299648719,0.19667835338199235,0.6531209811929587,1
0.5462731365682841,1.907766772482809,1.711395634245183,0.6433233736514615,1
0.5472736368184091,0.895583221464319,0.9236774104652187,0.652113891715191,1
0.5482741370685342,0.06291567022260647,-0.07491919488756937,0.6544974818180458,1
0.5492746373186593,0.8031678420801399,0.7642343326619255,0.6691095130172967,1
0.5502751375687843,-0.9146690082589621,-0.9950795689815843,0.687592696241134,1
0.5512756378189094,-1.545674967146688,-1.638524995914408,0.6893551761754907,1
0.5522761380690345,-0.7400152618957746,-0.7790105525476705,0.7038492103483015,1
0.5532766383191595,-0.8709579060829005,-1.0153874228639093,0.6976796785917525,1
0.5542771385692846,-0.6510719502576764,-0.6546699515563542,0.6824528748017137,1
0.5552776388194096,-0.3749950965209784,-0.5751722027825938,0.6799858452980424,1
0.5562781390695347,-0.7255472793943456,-0.7068240393339784,0.6850401255871805,1
0.5572786393196598,0.25694007713567146,0.01353270571810139,0.692836901620271,1
0.5582791395697848,-0.2065522781386544,-0.19127735565101533,0.6933515728725927,1
0.5592796398199099,-0.15440024637961985,-0.4155768288046164,0.6951965640425074,1
0.560280140070035,0.15627164300493573,0.14597584604258923,0.688910588866941,1
0.56128064032016,0.8958159074358498,0.6432648580992897,0.6823438718882109,1
0.5622811405702851,0.7999522666365289,0.7522328630835554,0.6957965818111536,1
0.5632816408204102,1.2954801819638022,1.0787410287093242,0.6944762231303567,1
0.5642821410705352,1.1448013732202316,1.0564579616885559,0.6972318195423794,1
0.5652826413206603,1.72619646488795,1.5668457841948729,0.6983903826559311,1
0.5662831415707853,1.5846193630325476,1.468888734155505,0.7024874215440461,1
0.5672836418209104,0.22550579290636674,0.12408058751997808,0.7030074499635214,1
0.5682841420710355,0.22423809599903105,0.11431298133026979,0.7093450757267538,1
0.5692846423211605,0.559024394347181,0.4951141948670634,0.711072519514832,1
0.5702851425712856,0.34116062371008593,0.27420067296294015,0.6987546263890485,1
0.5712856428214107,-0.7550190860503923,-0.8092839362997255,0.7034086801859204,1
0.5722861430715357,-1.3167965678321756,-1.3137816581649098,0.6974943957638079,1
0.5732866433216608,-1.2308413141450265,-1.3022400436696207,0.7008580584516455,1
0.5742871435717859,-1.1087666784917034,-1.025559257970112,0.7108666229099302,1
0.5752876438219109,-0.9014855005767519,-1.0065438574083305,0.7175312099411377,1
0.576288144072036,-1.3828704126965037,-1.2291123948758713,0.6993259276836883,1
0.5772886443221611,-0.3109825427159552,-0.45105118305819963,0.6819647952954754,1
0.5782891445722861,-0.4245211078421718,-0.2217887449558184,0.6876745186521178,1
0.5792896448224112,-0.21133538785977105,-0.37961591907817893,0.6865673067070702,1
0.5802901450725362,0.3236516661306862,0.5561109150514665,0.6769501933450841,1
0.5812906453226613,0.6713066539077865,0.4876801532589738,0.6973340604065769,1
0.5822911455727864,0.019238935723748796,0.25795382951407697,0.7075962463559152,1
0.5832916458229114,1.0516034079002299,0.8881812199703683,0.7116498098088961,1
0.5842921460730365,-0.28865217785298525,-0.08311378234220707,0.7218921770204858,1
0.5852926463231616,0.9184626031897837,0.8265731336327106,0.7198332818382348,1
0.5862931465732866,1.3840073461704467,1.525987361098169,0.7181189800275521,1
0.5872936468234117,0.6730393418149574,0.6804989466464709,0.7077373845783572,1
0.5882941470735368,0.6402755411014831,0.7250594315789908,0.7054002428785362,1
0.5892946473236618,0.3714263416663566,0.47005249260193244,0.7079222254996835,1
0.5902951475737869,0.18151810132576576,0.23872641624248442,0.7060937341409532,1
0.5912956478239119,-0.5799579962508344,-0.41528136438145713,0.7026657890374082,1
0.592296148074037,-0.8240760455169394,-0.7641203752981764,0.7000317933235067,1
0.5932966483241621,-0.866535958481701,-0.6643859351667815,0.7158585466727123,1
0.5942971485742871,-0.32296974774013976,-0.23895290473732989,0.7387742538833845,1
0.5952976488244122,-0.6437414189803503,-0.4293810432255832,0.740815548145134,1
0.5962981490745373,-1.53285549098362,-1.415681413139559,0.7413232508719977,1
0.5972986493246623,-1.2990742965276254,-1.0918605448571062,0.7429290240005827,1
0.5982991495747874,-0.7304376789142022,-0.575347417801802,0.7389938147631979,1
0.5992996498249125,-1.2766572348896041,-1.0974636842223022,0.721316022965068,1
0.6003001500750375,-0.2880525356989393,-0.08481545610911223,0.731206180245336,1
0.6013006503251626,0.6344856941937049,0.7704683765037572,0.7342490609840868,1
0.6023011505752875,0.8132030421390883,1.064496720379791,0.7358430621731772,1
0.6033016508254126,0.8531862588833271,0.9600268256115291,0.7634902675472668,1
0.6043021510755378,-0.09948049147282056,0.17381428345704478,0.7697342172310415,1
0.6053026513256627,1.4733311662128477,1.594365555857233,0.7727544273798409,1
0.6063031515757878,0.9611964902173481,1.219933336800898,0.7690088658229485,1
0.607303651825913,0.04355191957250515,0.21621087836715092,0.762448888109266,1
0.6083041520760379,0.47191959626898383,0.7033957162305018,0.7799831373612827,1
0.609304652326163,0.08583591140470673,0.31263206969206575,0.7985373708265697,1
0.6103051525762881,-0.1559688132754149,0.06026075550845511,0.8211184369274619,1
0.6113056528264131,-0.3860256086368355,-0.12418508563954123,0.8241550924949903,1
0.6123061530765382,-0.8497158505601428,-0.6353757780925049,0.7942683907919522,1
0.6133066533266633,-1.475694693354809,-1.204840159766693,0.8017404871963691,1
0.6143071535767883,-1.1853417534882775,-0.9650333937520427,0.816745165483834,1
0.6153076538269134,-1.6481443545057668,-1.3954485290176168,0.8149582245815523,1
0.6163081540770384,-1.5588904131680557,-1.337188948460434,0.8130449620336638,1
0.6173086543271635,-1.1392148300374467,-0.9154182549802627,0.8153987299313273,1
0.6183091545772886,-1.4553388447051523,-1.2600983418638763,0.800855538503962,1
0.6193096548274136,-0.8077324234509999,-0.5971789079545294,0.7998273446435213,1
0.6203101550775387,-0.4282206145935086,-0.29958580930612544,0.8216188889142777,1
0.6213106553276638,0.6665994596123515,0.8895725927289745,0.8421658870858191,1
0.6223111555777888,1.077648695958256,1.1170211962956762,0.8389984114955423,1
0.6233116558279139,0.17342823007445662,0.41835045376312735,0.846285901289972,1
0.624312156078039,1.5558245210674309,1.520067121983513,0.8517380092189354,1
0.625312656328164,0.9010303909056842,1.1586878943458658,0.836175273328563,1
0.6263131565782891,1.3908511455856902,1.3088124543303854,0.8427207665162688,1
0.6273136568284141,1.559758614954211,1.83341145176268,0.8522239620071452,1
0.6283141570785392,0.6550328324785561,0.5339862291445573,0.8557401013599193,1
0.6293146573286643,0.21569473722669577,0.5306264265181488,0.8542953491619314,1
0.6303151575787893,0.5362118318214099,0.36883283720684457,0.8779325987417598,1
0.6313156578289144,-0.5316866343340305,-0.15968126757485812,0.857922553239615,1
0.6323161580790395,-0.9268393439167945,-1.1346662921149098,0.8430065538362255,1
0.6333166583291645,-2.227652921594971,-1.8158928932347178,0.8536501933613091,1
0.6343171585792896,-0.9932981870470471,-1.2121670873868107,0.8616656664140689,1
0.6353176588294147,-1.3801431662166885,-0.9784059120091322,0.8712832182192625,1
0.6363181590795397,0.15248242675156043,-0.031652275946267204,0.8830071718644953,1
0.6373186593296648,-1.3863459902813096,-1.0541037668673185,0.9044417061208894,1
0.6383191595797898,-1.3617143716772246,-1.4752933459522326,0.9000565815663301,1
0.6393196598299149,-0.6115102435633673,-0.38070544748784824,0.8814164681144118,1
0.64032016008004,0.18421384925462309,0.14306328884805936,0.8834543205557049,1
0.641320660330165,0.393157486167345,0.5329697592646325,0.873440276288846,1
0.6423211605802901,0.03026683452947665,0.03696080392990886,0.8695069265680923,1
0.6433216608304152,0.5276113968463731,0.6129762421447456,0.8704932846426991,1
0.6443221610805402,1.3022883248455597,1.3285301182751512,0.8526551085433309,1
0.6453226613306653,1.3851457391916413,1.4567309518026526,0.842619501932852,1
0.6463231615807904,1.229276131707224,1.2573076336257185,0.8548302575608276,1
0.6473236618309154,1.3659609333513598,1.4562350345785928,0.8465567879568119,1
0.6483241620810405,0.8226368563739939,0.8479528142499754,0.841299085860675,1
0.6493246623311655,0.1972334655778922,0.3193268897036822,0.847678439718424,1
0.6503251625812906,0.374469387995854,0.4120901154944041,0.8310140736602082,1
0.6513256628314157,-1.3839853901030978,-1.245628151047571,0.8218827056808312,1
0.6523261630815407,-1.315585800866946,-1.240303688018498,0.7970885428032913,1
0.6533266633316658,-1.0207477609012083,-0.8877892157121345,0.7717484329397808,1
0.6543271635817909,-1.4719328975440364,-1.355676762448458,0.7630269286294413,1
0.6553276638319159,-0.7205824645257064,-0.5938632807499978,0.7631090010228606,1
0.656328164082041,-0.6084052535017177,-0.4741333666314263,0.7679794461520482,1
0.6573286643321661,-0.8788459697782962,-0.7483928546213245,0.7737913755027188,1
0.6583291645822911,-1.2326274790165552,-1.1041693688684913,0.7600297723996606,1
0.6593296648324162,-0.9318868652443335,-0.7935096599517538,0.7344289690771664,1
0.6603301650825413,0.5344972096585733,0.6464584377700929,0.723569249049433,1
0.6613306653326663,1.0507417538758674,1.1959117984592402,0.7228404180065955,1
0.6623311655827914,0.3213543426349893,0.41611955036453435,0.7387380855182544,1
0.6633316658329164,0.12056817879859982,0.27283448717078856,0.743752393526288,1
0.6643321660830415,0.9831185541453207,1.066926015816697,0.731100694888731,1
0.6653326663331666,0.7352846021426852,0.8947463156746682,0.7262213163694702,1
0.6663331665832916,1.058634263618386,1.1405214624227475,0.7267024132394503,1
0.6673336668334167,0.7901081612792535,0.9647361587106043,0.7224798027938475,1
0.6683341670835418,0.2967882571297586,0.36818953689546285,0.7393325150263567,1
0.6693346673336668,-0.12423540111665002,0.09539857743058833,0.7501014320298448,1
0.6703351675837919,-0.9348357437489165,-0.9101235907049103,0.7591904600555132,1
0.671335667833917,-0.7845504097918826,-0.4758991125281902,0.7469710966935525,1
0.672336168084042,-0.7864918144439472,-0.8541360914888331,0.7307948331585523,1
0.673336668334167,-1.1637401369313785,-0.7373181466505783,0.7278227220853912,1
0.674337168584292,-0.5057275809498265,-0.6868488190727142,0.719278208193326,1
0.6753376688344171,-1.2314570871526813,-0.7021194953770198,0.7146372181026907,1
0.6763381690845423,0.338957319858721,0.06910431045338966,0.7069594301270091,1
0.6773386693346672,-1.1378175453292019,-0.5664059585871529,0.6957801685196898,1
0.6783391695847923,0.3961269253508441,0.0979110136275871,0.676419857472428,1
0.6793396698349174,-1.0721679694993465,-0.5347300461891054,0.6726102148871265,1
0.6803401700850424,-0.3433222569041906,-0.6123550936662214,0.6755189807477386,1
0.6813406703351675,-0.004885378477482494,0.4502777351084032,0.6814123159675414,1
0.6823411705852926,0.6611099698266402,0.44658613696199934,0.6988583612674117,1
0.6833416708354176,0.17212857103773394,0.5358527271099983,0.6987608882359176,1
0.6843421710855427,0.828753874537311,0.6691810860001501,0.6840147934799106,1
0.6853426713356677,0.6568156172843023,0.9419643598672525,0.6749857093405748,1
0.6863431715857928,0.9410522933088604,0.8265356515292117,0.6793280079956348,1
0.6873436718359179,1.0775804424287454,1.3048191672689984,0.6600561993984535,1
0.6883441720860429,0.9229600700261875,0.8427084140743852,0.6673998527563482,1
0.689344672336168,-0.31778713400234326,-0.13673652152480248,0.6695514053369712,1
0.6903451725862931,0.2143140899372194,0.16711813234706335,0.6696838059117884,1
0.6913456728364181,-0.4525348636840998,-0.32183923698449235,0.6692469154660453,1
0.6923461730865432,-0.8637965457899727,-0.8795964155553686,0.6710632377493083,1
0.6933466733366683,-1.2288611027330654,-1.151422092319153,0.679018001808491,1
0.6943471735867933,-1.7797012878807523,-1.7829815195585659,0.6765176943622784,1
0.6953476738369184,-0.875746525793338,-0.845762783704625,0.6752787000413637,1
0.6963481740870435,-0.4328238100957849,-0.4484944568757094,0.6640940480705994,1
0.6973486743371685,-1.2891424408387455,-1.3076294809205398,0.6619626926621691,1
0.6983491745872936,-0.38089174213332927,-0.42072711964670495,0.6695784789688148,1
0.6993496748374186,-0.014990456979707939,-0.08727738517191841,0.6730531629103157,1
0.7003501750875437,0.048396462441848954,-0.02820071671033242,0.6669139788775705,1
0.7013506753376688,0.7946029060461208,0.6866650706816055,0.6720475007608513,1
0.7023511755877938,-0.1306103435313153,-0.272288135655407,0.6841228849784142,1
0.7033516758379189,0.8030918416156714,0.6973070864470593,0.6883836039398642,1
0.704352176088044,1.7247251417905038,1.5011150554790669,0.6955478497085226,1
0.705352676338169,0.9734847079607255,0.8885300417401342,0.6972849448752164,1
0.7063531765882941,1.6287260116540225,1.3464356316249453,0.6925148159458164,1
0.7073536768384192,0.8189850051773683,0.7435192030466232,0.6961448640892977,1
0.7083541770885442,0.6625835324679991,0.36686463106813116,0.7007786199944195,1
0.7093546773386693,0.42408706055490464,0.34205545298496015,0.6936336719346291,1
0.7103551775887943,1.1368784146035558,0.8635733705230918,0.7116496483670036,1
0.7113556778389194,0.32311796194751474,0.23232136860017982,0.7173720883601862,1
0.7123561780890445,-0.5408353452516295,-0.7833022182592698,0.7148512584118881,1
0.7133566783391695,-0.3019348942512694,-0.38041211620194554,0.6937712200605614,1
0.7143571785892946,-0.8393142227811965,-1.073546044557556,0.6871153000797372,1
0.7153576788394197,-0.8397643109988518,-0.8729017933875112,0.6967381638725166,1
0.7163581790895447,-0.9792401678753423,-1.2313375765859005,0.7068607721375958,1
0.7173586793396698,-1.3873552504258497,-1.362474361669738,0.7062141686951401,1
0.7183591795897949,0.02401742608120805,-0.24317416458482888,0.699730165976824,1
0.7193596798399199,-0.02850916730867753,0.0334488613848527,0.6912514776177255,1
0.720360180090045,0.6001208836629561,0.350890992166693,0.6653212503957084,1
0.72136068034017,0.30820464233586414,0.3693313421066833,0.6828530521248058,1
0.7223611805902951,1.4224593401278642,1.234925406821118,0.6891864948396468,1
0.7233616808404202,0.882523836270817,0.9110523437256224,0.6770109848488063,1
0.7243621810905452,0.4746130891081032,0.3798896174354506,0.6896957589485488,1
0.7253626813406703,0.9693874361055431,0.9587955895410587,0.6959850736910563,1
0.7263631815907954,0.6707011490331944,0.6728735213315387,0.6970112652028164,1
0.7273636818409204,0.8148405301302956,0.7794419066596467,0.6872922680743869,1
0.7283641820910455,0.36680406249728076,0.4561233020605073,0.6878409337218794,1
0.7293646823411706,-0.5728905022151526,-0.6215848045237957,0.7072718611864897,1
0.7303651825912956,-0.5394676286208142,-0.3738486471962314,0.6940048596473252,1
0.7313656828414207,-0.577013234530109,-0.6317801422824632,0.6892929700561689,1
0.7323661830915458,-0.8929469205828814,-0.6782739322180854,0.685545680474544,1
0.7333666833416708,-0.1422723909721817,-0.1786053241204801,0.6844292609743392,1
0.7343671835917959,-1.7761934174755956,-1.5699799076188796,0.7022958154518375,1
0.7353676838419209,-1.2508978413696692,-1.2280863595263827,0.711431613775649,1
0.736368184092046,-0.8363063427487063,-0.7004941541143064,0.7057639345301939,1
0.7373686843421711,-0.3562939749011982,-0.2508172497026587,0.7062743425676609,1
0.7383691845922961,-0.5480161575159382,-0.5099124150331791,0.7032943324207255,1
0.7393696848424212,-0.7885455957020966,-0.6178797111637719,0.7163982079443311,1
0.7403701850925463,0.709041962330502,0.6732485456010169,0.7105562971461407,1
0.7413706853426713,-0.4699988938677428,-0.28950906486170563,0.7290811158582559,1
0.7423711855927964,0.6084339443434609,0.5553962796395748,0.7232207481283907,1
0.7433716858429215,0.5898495464238349,0.7274876743642313,0.6991935100452964,1
0.7443721860930465,0.5188810951512101,0.4864701584577106,0.7057867552208603,1
0.7453726863431716,1.632913923993422,1.7223528701594946,0.7209352593137341,1
0.7463731865932965,0.7808390044476025,0.7651665926177575,0.7155543528508764,1
0.7473736868434216,0.6282429026696507,0.6988539813785091,0.7108097272014916,1
0.7483741870935467,1.068020289099465,1.0549658246338318,0.6867527134358921,1
0.7493746873436717,0.3286356111708161,0.4017431222972935,0.7010899924886904,1
0.7503751875937968,-0.06920879981264919,-0.07951029229833467,0.7150755362319328,1
0.751375687843922,0.1238408129548419,0.20071521426012828,0.7002552539075555,1
0.7523761880940469,-0.3028918512946853,-0.2997214180300287,0.7048435898857983,1
0.753376688344172,-1.73151102550588,-1.6688534596775746,0.7112610952601839,1
0.7543771885942971,-0.8740812582777292,-0.837764978520841,0.7128093227601475,1
0.7553776888444221,-0.672682347244151,-0.6529355621823193,0.7062927341159335,1
0.7563781890945472,-1.2388700349584092,-1.1590711525437025,0.7066200609939233,1
0.7573786893446722,-0.6525575798608089,-0.6876982280363841,0.7013158928385466,1
0.7583791895947973,-1.3719427764168228,-1.2601923549430436,0.7057292370313627,1
0.7593796898449224,-0.7122444492197894,-0.798845369175536,0.7214636985502516,1
0.7603801900950474,0.44594143547755644,0.5801894082503343,0.7119165453572013,1
0.7613806903451725,0.39654301596514935,0.2578417704735305,0.7015410007084777,1
0.7623811905952976,0.47482824767817444,0.6343017109125001,0.7068292632260772,1
0.7633816908454226,1.218557456928824,1.0356058923822324,0.7122296936096162,1
0.7643821910955477,0.6045579007665488,0.7814505046480337,0.7031490790923282,1
0.7653826913456728,1.9926962561467318,1.7991427289932693,0.7061781430807192,1
0.7663831915957978,0.7645023360049914,0.9383191900926418,0.7023963886805488,1
0.7673836918459229,0.005959919052851759,-0.1611124575150295,0.7265891661431654,1
0.7683841920960479,0.4093243449580265,0.5728364233630191,0.7365214172770631,1
0.769384692346173,0.9157275738392471,0.7908740660285443,0.7440385672235513,1
0.7703851925962981,-0.07928880198717397,0.08184566902380291,0.7524478057227837,1
0.7713856928464231,-0.049277556493547536,-0.1321000596374452,0.74164429404548,1
0.7723861930965482,-0.2030136108634482,-0.032074718541140634,0.7299511230108502,1
0.7733866933466733,-1.5751323117984137,-1.6279162963655367,0.720657002030525,1
0.7743871935967983,-1.2679435158468966,-1.0791668045975777,0.7106351157804233,1
0.7753876938469234,0.24442288391724898,0.2177814733221929,0.7050965751274727,1
0.7763881940970485,-1.087842025510082,-0.9022903202436761,0.7146020679701031,1
0.7773886943471735,-1.1230023237208604,-1.1003171753789247,0.7115423465670805,1
0.7783891945972986,-0.6721922919848858,-0.5335346770586932,0.7425920078735693,1
0.7793896948474237,0.19344092579116526,0.2957553723130902,0.726995521793819,1
0.7803901950975487,-0.4457802102524325,-0.3902149910957232,0.7228370295599502,1
0.7813906953476738,-0.5636224651200201,-0.3665717345136269,0.7240441422835524,1
0.7823911955977988,0.9340370098111537,0.8989411418588898,0.7135352817088282,1
0.7833916958479239,0.6868440348309541,0.9653284000649262,0.7218638478860362,1
0.784392196098049,1.19387742672949,1.0926222479663608,0.708405226737183,1
0.785392696348174,0.38138003180659075,0.709309127090204,0.6944249093138886,1
0.7863931965982991,1.0984527254656757,0.9649072799942844,0.6930241951652499,1
0.7873936968484242,0.17154409126341297,0.5208387688796099,0.6974610587277553,1
0.7883941970985492,0.09188837814161699,-0.05588168916877878,0.6891957705499218,1
0.7893946973486743,0.4090419249476433,0.7693329105833282,0.693141919694617,1
0.7903951975987994,-0.318804982552923,-0.48416082559249374,0.6901894732282847,1
0.7913956978489244,-1.8622866959829874,-1.499147937992529,0.6704687758148586,1
0.7923961980990495,-0.8709946114626592,-1.0520088363344593,0.6652442893195477,1
0.7933966983491745,-1.4371476668502576,-1.1033451716886442,0.6771099859273672,1
0.7943971985992996,-0.7309032180349537,-0.906932083419328,0.6855056361179295,1
0.7953976988494247,-1.4392427310911462,-1.1821772862943145,0.6743641751339247,1
0.7963981990995497,-0.031975017010418605,-0.1805080408862684,0.690910570966211,1
0.7973986993496748,0.08853430540550156,0.23414793236224762,0.7039134193247679,1
0.7983991995997999,-0.43628621796388656,-0.5538715121287431,0.7223871188266837,1
0.7993996998499249,0.09409161803576424,0.12481608964977031,0.6998368522195023,1
0.80040020010005,-0.45539161265943423,-0.554784934429852,0.7038457786013185,1
0.8014007003501751,0.028711807699503267,-0.04772914410900064,0.7262694934370434,1
0.8024012006003001,1.9267891599495912,1.852204483354472,0.7306257808937983,1
0.8034017008504252,1.0831485270083367,0.88902915569005,0.7379357026598418,1
0.8044022011005502,0.6485772517109107,0.6298403668274021,0.740467656481821,1
0.8054027013506753,1.0332767121115374,0.7132911983624355,0.7391300930018597,1
0.8064032016008004,0.5800911207199383,0.6336281238074858,0.7514800501742087,1
0.8074037018509254,1.5265959737711765,1.1041265368967874,0.7602250793773782,1
0.8084042021010505,0.47581704661695196,0.5872612975003793,0.7428912912629497,1
0.8094047023511756,0.577888094254418,0.09982949801081792,0.7343403893058099,1
0.8104052026013006,-0.6479240918729491,-0.5101537008184074,0.7213893401356206,1
0.8114057028514257,0.9657992582295662,0.4796849485987936,0.7237010838857685,1
0.8124062031015508,0.08405635410566392,0.2210373020208187,0.7297985261649514,1
0.8134067033516758,-0.7607281816757019,-1.2329133496170002,0.7388880175125235,1
0.8144072036018009,-0.7675960961256003,-0.6338281813314209,0.7402265284401734,1
0.815407703851926,-0.3462361650025797,-0.8131078583219673,0.7345656430485912,1
0.816408204102051,-0.8153304971515771,-0.6770948653270925,0.7347890302378738,1
0.817408704352176,-0.286426575752893,-0.7543972879060006,0.7146093483851768,1
0.818409204602301,-1.1226303135304665,-0.9926189328911361,0.7058646657002775,1
0.8194097048524261,0.6843590904339119,0.23380101682830204,0.6924118219176804,1
0.8204102051025512,-1.000983898623441,-0.9091654606381153,0.699106234248052,1
0.8214107053526762,-0.37181446488605085,-0.7822424775652927,0.7038165510391471,1
0.8224112056028013,0.9088179212372296,0.9557596936369299,0.7177543402575741,1
0.8234117058529264,0.8785105643792162,0.5004029660064643,0.7283679781065356,1
0.8244122061030514,1.2464022444142995,1.2796131236883872,0.7209855273448107,1
0.8254127063531765,1.7058489048886984,1.338967215108436,0.7236533390022167,1
0.8264132066033016,1.0722922570098108,1.1201046930814242,0.7160991113753138,1
0.8274137068534266,1.8172725821038473,1.4658132636811003,0.7287618950011133,1
0.8284142071035517,0.599697966726859,0.6601323681576554,0.703994216255859,1
0.8294147073536767,0.5360328849375994,0.2288771983150258,0.6983234482900406,1
0.8304152076038018,-1.0610700784089506,-1.007712849713178,0.7099649228723738,1
0.8314157078539269,-0.5652582581881711,-0.8038231946720966,0.7302383149421832,1
0.8324162081040519,-0.06938406826878452,-0.03225173613746515,0.7234630725737813,1
0.833416708354177,-0.36082017953309553,-0.5377833022079348,0.714361939379179,1
0.8344172086043021,-0.4808333839843373,-0.4450697894569029,0.7064764688860805,1
0.8354177088544271,-0.675580044198659,-0.8248963145975956,0.7152534022654731,1
0.8364182091045522,-1.3280927114842143,-1.26977939395343,0.7175890334014228,1
0.8374187093546773,-0.8147826585181585,-0.9753133362582145,0.7137525708080246,1
0.8384192096048023,-0.22491106248862736,-0.12280723555127723,0.7294237304103376,1
0.8394197098549274,-0.2812121190569116,-0.48628864100421426,0.7297519982209533,1
0.8404202101050524,-0.655301356781227,-0.4953301850566275,0.737175352394184,1
0.8414207103551775,0.7550752604414381,0.490163845357678,0.7382434303834214,1
0.8424212106053026,0.3984278812726669,0.6147747020894958,0.7409394220467451,1
0.8434217108554276,0.7482412924923821,0.4307029825587832,0.7517266865089316,1
0.8444222111055527,0.9817347306690402,1.2416526999379052,0.7345307030776814,1
0.8454227113556778,1.7635410069591244,1.4176931258490733,0.7326898790616043,1
0.8464232116058028,0.601720180768799,0.8773975018076221,0.724486529060276,1
0.8474237118559279,1.0920511102954005,0.764829824810322,0.7180366779718421,1
0.848424212106053,-0.42596306807035234,-0.1847489740424915,0.6996042669721839,1
0.849424712356178,0.5071283707033805,0.2582066725200705,0.7018418643665061,1
0.8504252126063031,-0.3301824570472638,-0.17707355308470657,0.7008624455463928,1
0.8514257128564282,-0.5498052195161823,-0.6808683253989769,0.7143688835336622,1
0.8524262131065532,-0.6518889371005514,-0.6138205460917563,0.7021233442731185,1
0.8534267133566783,-0.5885440370713195,-0.6054907573991313,0.6878830478256925,1
0.8544272136068033,-1.1470106850881736,-1.2119140959440626,0.6923699280385837,1
0.8554277138569284,-1.7756053773991574,-1.7269608018529068,0.6906789602542489,1
0.8564282141070535,-0.1781973815616933,-0.29486600538738705,0.6772152194672912,1
0.8574287143571785,-0.6823099391607954,-0.649069877166673,0.6919559852148058,1
0.8584292146073036,0.29176001140162056,0.19298777284545376,0.7194224877167891,1
0.8594297148574287,0.5929017516674145,0.5386761669804518,0.7345460277824747,1
0.8604302151075537,-0.5929811391091055,-0.6269352576158983,0.7473318064881781,1
0.8614307153576788,-0.11635562182153558,-0.2878618189288805,0.741146278373599,1
0.8624312156078039,0.9579305387594377,1.0045952821364685,0.7315209971596874,1
0.8634317158579289,1.5333984943595786,1.24932674014778,0.7277124249450783,1
0.864432216108054,0.8826152045568846,1.0049958899929539,0.730595753996257,1
0.865432716358179,1.2286036259813673,0.866511757783845,0.7265037052726682,1
0.8664332166083041,0.6456200346073881,0.8118944484932697,0.7178043896366596,1
0.8674337168584292,1.6681794572216577,1.293760511015325,0.7179445336857203,1
0.8684342171085542,-0.01951605790198263,0.1328197613286351,0.7347652004557517,1
0.8694347173586793,0.45013942854122585,0.14175981602445165,0.7491759565597644,1
0.8704352176088044,-0.5785289724594297,-0.4989979605716979,0.7366118332489947,1
0.8714357178589294,-0.26998333702041105,-0.4597499231435978,0.738027758245315,1
0.8724362181090545,0.05183979870548261,0.034139143654011495,0.7423722721501588,1
0.8734367183591796,-0.5396426938699636,-0.6122828357225769,0.7386015067118455,1
0.8744372186093046,-1.1381444160724383,-1.2306421826827179,0.7456997005314154,1
0.8754377188594297,-2.008292406321159,-2.0142891144719117,0.7472333896377751,1
0.8764382191095547,-0.3952850206384667,-0.5078277300542399,0.745008808555585,1
0.8774387193596798,-0.7451833576017355,-0.7537984413097994,0.7396702554871984,1
0.8784392196098049,-0.804813066664104,-0.8844763788022145,0.7555461749637032,1
0.8794397198599299,-0.08990430010421267,-0.1443288090982891,0.7705820810386829,1
0.880440220110055,0.3626139528715453,0.3345258103652946,0.767780287330464,1
0.8814407203601801,1.6384023877115095,1.5408614820478228,0.7412219908676336,1
0.882441220610305,1.3932531854729335,1.4055768612366224,0.7619728262482206,1
0.8834417208604302,1.4053048890418784,1.293960305492212,0.7634651207995209,1
0.8844422211105553,1.0483253268279686,1.0843587247420778,0.7707810497269546,1
0.8854427213606803,0.6102549823364474,0.5156199088686472,0.7676186568833551,1
0.8864432216108054,0.7404540858843878,0.7885153332578456,0.7694582324642235,1
0.8874437218609305,0.8361868200674537,0.7848847255277627,0.77585167866254,1
0.8884442221110554,-0.3103498464119157,-0.2669736881102092,0.7787071864989891,1
0.8894447223611806,-0.29966377500951,-0.2816862048247708,0.7690500937008973,1
0.8904452226113055,0.044162730302726466,0.06036440325620379,0.7741947725923978,1
0.8914457228614306,-0.5991065501350498,-0.4971710478107108,0.7840467300938295,1
0.8924462231115557,-1.4262692777724442,-1.4558080405910632,0.7770893660526771,1
0.8934467233616807,-1.3345258828440936,-1.1512407877594288,0.7540567034425011,1
0.8944472236118058,-0.5288838548515068,-0.6134465343994158,0.7544610185485766,1
0.8954477238619309,-1.7318905339931119,-1.4884893756650865,0.7609630109736834,1
0.8964482241120559,-0.9579800572437706,-1.0946231970498084,0.7541278689943939,1
0.897448724362181,-0.8529046966475476,-0.5762915528946587,0.7652993981155956,1
0.8984492246123061,-0.35051707962705053,-0.5396586650209911,0.7749305041628493,1
0.8994497248624311,0.035468752220946115,0.33489112783804764,0.774325482858724,1
0.9004502251125562,0.18272787818195724,-0.0658444989752045,0.7812906158314097,1
0.9014507253626812,0.09568219004733236,0.41394067197965145,0.7616023750798171,1
0.9024512256128063,1.7027019259078433,1.407616519917001,0.7585130116631742,1
0.9034517258629314,1.0437614653195477,1.357286061148113,0.7540324455727248,1
0.9044522261130564,1.3655106948761975,1.0718244105331156,0.750878670271764,1
0.9054527263631815,0.13687818354226045,0.39904597871138253,0.7494181328551733,1
0.9064532266133066,1.555987927189988,1.3324077744167389,0.7632881783670107,1
0.9074537268634316,0.5639507355373161,0.7236846047316815,0.7421566691466632,1
0.9084542271135567,0.6568783340302892,0.5587842192171419,0.7190244857150309,1
0.9094547273636818,0.3456784617637194,0.3805565248004802,0.702205820141492,1
0.9104552276138068,-0.7518526273434251,-0.7189140366593165,0.6834435959611272,1
0.9114557278639319,-0.5415127499398021,-0.6075341288447054,0.6988544519164904,1
0.9124562281140569,-1.2665004014745491,-1.1473706739589238,0.7129618064000495,1
0.913456728364182,-0.6500628593365726,-0.7664721002431863,0.6973125000802558,1
0.9144572286143071,-1.4046905721358791,-1.262229834567979,0.7167238093101547,1
0.9154577288644321,-1.2363425098297005,-1.3591096328554362,0.7287103336681646,1
0.9164582291145572,-0.5821798801392912,-0.46402624643564844,0.7284050119566167,1
0.9174587293646823,-0.03322902673901973,-0.14212738050652252,0.7204692865006692,1
0.9184592296148073,-0.22447096163800895,-0.15303551663240778,0.716383533506808,1
0.9194597298649324,-0.37579236935467664,-0.46685943727978507,0.7181069682231868,1
0.9204602301150575,0.13843934972719335,0.15724086160722778,0.7248070107438593,1
0.9214607303651825,1.0898306171893881,1.0183263792036903,0.7256584071707203,1
0.9224612306153076,0.5472651633424095,0.5156944460166983,0.7148742446370573,1
0.9234617308654326,0.6324211601378114,0.5820317705163114,0.710476384018572,1
0.9244622311155577,1.645349460279152,1.5788988313170016,0.7199129962792855,1
0.9254627313656828,1.0678069133645727,1.0298770768922831,0.724161231475838,1
0.9264632316158078,0.42662103415960795,0.35335955922209583,0.7321379073658821,1
0.9274637318659329,0.5680815651794786,0.5297701367873285,0.7353844292117928,1
0.928464232116058,0.7824949409189669,0.7267876137541754,0.7206897381522148,1
0.929464732366183,-0.022941757439867427,-0.07130193826875059,0.7141493626345536,1
0.9304652326163081,-1.0041354649384095,-1.0280280859571624,0.7060501021710747,1
0.9314657328664332,-0.4179894830325604,-0.484286021030448,0.7110327696485229,1
0.9324662331165582,-0.2633772303862161,-0.24896768965500213,0.7010205196267978,1
0.9334667333666833,-0.3542224816201819,-0.4530270268152797,0.7154885652292374,1
0.9344672336168084,0.08368382138916441,0.14624751572383493,0.716003375194727,1
0.9354677338669334,-1.1316136621644481,-1.2861627066368047,0.7135300116952827,1
0.9364682341170585,-1.6060615443835728,-1.493883057435796,0.7000187217408241,1
0.9374687343671835,0.21454812079451502,0.0024194095380785374,0.6980201363725648,1
0.9384692346173086,-1.3689806137070535,-1.2375391496051493,0.6914468546100292,1
0.9394697348674337,-0.6372463395516851,-0.8810124227252762,0.6921398167129172,1
0.9404702351175587,-0.07186625812021835,0.04509831767880357,0.6895319618977938,1
0.9414707353676838,0.16067509208889041,-0.10038477501334281,0.6876801806825145,1
0.9424712356178089,1.1514713594469694,1.251520390898003,0.6855068387405807,1
0.9434717358679339,1.5173237973543374,1.237412523578365,0.6859245364663585,1
0.944472236118059,0.8581090739954716,0.9484486604330409,0.6831488016935975,1
0.9454727363681841,1.815421014388905,1.531059197008139,0.6859072342802642,1
0.9464732366183091,0.4833364987107741,0.5554150703666536,0.694258785901849,1
0.9474737368684342,0.6154760380330183,0.35639852197039823,0.6811404727286923,1
0.9484742371185592,0.967960848072998,1.0114892780566658,0.672466884495553,1
0.9494747373686843,0.7620120767473317,0.5473028876656714,0.6683043641946629,1
0.9504752376188094,-0.47903382948573225,-0.4646782934774079,0.6545859651033683,1
0.9514757378689344,-0.4097184014895769,-0.5762667642751913,0.6613786557602191,1
0.9524762381190595,-0.6627756793010335,-0.6728819669380999,0.6823605775167357,1
0.9534767383691846,-0.8992459109111398,-1.0302672852650523,0.7058741997806017,1
0.9544772386193096,-0.6466851747865183,-0.666861387359168,0.7186154029042645,1
0.9554777388694347,-0.5231118462578968,-0.6481793525837876,0.7172874819388754,1
0.9564782391195598,-0.8224078758136947,-0.831795273330489,0.7036586467744542,1
0.9574787393696848,-1.2950290718601019,-1.4470868848536667,0.7022763387202284,1
0.9584792396198099,-0.6018759952166475,-0.5845247174916213,0.713883060607438,1
0.9594797398699348,0.45321347933115563,0.2568883498282685,0.7272486527660961,1
0.96048024012006,-0.08461913952434028,-0.043349538936380494,0.7422189623548889,1
0.961480740370185,0.7360939421288955,0.5076048604317335,0.7351813694793404,1
0.96248124062031,0.7739996759599128,0.8187065858321533,0.7234669582530939,1
0.9634817408704351,1.0311149891223017,0.8011202053875855,0.744909952791442,1
0.9644822411205602,1.1067593366360011,1.1318370938118076,0.7431714359636895,1
0.9654827413706852,1.4606157722464426,1.266520572091475,0.7336513220770442,1
0.9664832416208103,0.37430455386396844,0.3553591493389566,0.7382831096156359,1
0.9674837418709354,0.28096117906662144,0.16301226679541037,0.7381544963781602,1
0.9684842421210604,0.07039113518973938,-0.014248777994358475,0.7408315852146933,1
0.9694847423711855,0.6207088725928679,0.6047810666131258,0.7266867288538323,1
0.9704852426213106,0.7267101379133235,0.5748184426864579,0.7115785004534357,1
0.9714857428714356,-0.43876551544820863,-0.36241072054585177,0.7094800177294914,1
0.9724862431215607,0.2721821228551611,0.08201503435973811,0.7275130537924891,1
0.9734867433716857,-0.4976476452098495,-0.3739057554718046,0.7392624702874577,1
0.9744872436218108,-0.7077340362406591,-0.8929788767522766,0.7390270982852347,1
0.9754877438719359,-1.4861058927339394,-1.3695116097348237,0.7480828378943141,1
0.9764882441220609,-1.256299269103376,-1.4024556470479306,0.7430552117572756,1
0.977488744372186,-1.771241239980122,-1.7054512499806265,0.7363169219733147,1
0.9784892446223111,-1.2722582783491454,-1.3638477699373124,0.7334061756277417,1
0.9794897448724361,0.010004005525752674,0.004905889999295532,0.7283372903198897,1
0.9804902451225612,0.38834485659598633,0.34658632773610537,0.7485419212573041,1
0.9814907453726863,0.4869414864241928,0.4151706183191539,0.7532210579918208,1
0.9824912456228113,0.8340586058480762,0.8293037840154809,0.7539194329013782,1
0.9834917458729364,1.2412901911703669,1.1213066347481788,0.7596260673342768,1
0.9844922461230614,0.8757478591323792,0.8947629951634781,0.7558867529121357,1
0.9854927463731865,1.0738111243622788,0.934283062859381,0.7594432341671825,1
0.9864932466233116,0.8785208474112947,0.9081624961234729,0.7641470691510236,1
0.9874937468734366,1.2029050632673157,1.0745691364554837,0.7681798149779567,1
0.9884942471235617,1.1193030706057636,1.150613308217523,0.7682811131016626,1
0.9894947473736868,0.498705121524352,0.40500672839301244,0.781928361972568,1
0.9904952476238118,0.25162827265025045,0.27668769460838666,0.77336054514979,1
0.9914957478739369,-0.055140135441502536,-0.09395411313955909,0.7496540262551533,1
0.992496248124062,-1.383970402518016,-1.385374832724654,0.7455424621447279,1
0.993496748374187,-0.5678290631757895,-0.5301697055353134,0.7617869117280336,1
0.9944972486243121,-0.139866694087173,-0.19303724041321335,0.7774208373869042,1
0.9954977488744371,-1.542837132447818,-1.4261350608109271,0.7829279855548215,1
0.9964982491245622,-1.3453660641048846,-1.4570668735165397,0.7807578508113757,1
0.9974987493746873,-1.1160451073535067,-0.9438693467188268,0.792423798041585,1
0.9984992496248123,-0.838556430321147,-0.9997206779455168,0.8036546701026145,1
0.9994997498749374,-1.193274202134064,-1.0000898681196388,0.8224467216038207,1
1.0005002501250624,-0.023460096700332028,-0.21329698662548163,0.8215283085328008,1
1.0015007503751876,0.06477977736488932,0.23935227507715073,0.8119491615563927,1
1.0025012506253126,0.7131555951495409,0.5273446496594503,0.7952424295329924,1
1.0035017508754376,0.6576030903853181,0.7768230198724443,0.7632795867779206,1
1.0045022511255628,1.8225712911944603,1.677092934229892,0.7581214645488408,1
1.0055027513756878,0.8405432851376193,0.8821361893096211,0.7614408582195874,1
1.0065032516258128,0.9511743881423076,0.8667140188083546,0.7587851486640558,1
1.007503751875938,1.7550803732074571,1.732418606498606,0.7542654661193099,1
1.008504252126063,0.4401961231766379,0.39755899638456493,0.7431732355607433,1
1.009504752376188,0.4713998841408885,0.434712412580609,0.7443830007035384,1
1.0105052526263132,-0.2354577682296337,-0.27854128812843437,0.7583866693146277,1
1.0115057528764382,-0.7034680758336671,-0.709242151778387,0.7429797574288455,1
1.0125062531265632,-0.7563678170949253,-0.8237714920174499,0.7457503385060911,1
1.0135067533766882,-1.515548508009112,-1.483482648932855,0.7536488941476016,1
1.0145072536268134,-0.6189029302621096,-0.7034462526729125,0.7542731906532587,1
1.0155077538769384,0.03551097993180097,0.08119462735963966,0.7532852305060772,1
1.0165082541270634,0.22828515162988905,0.14978094381768606,0.7554663998746608,1
1.0175087543771886,-1.0007664085590757,-0.9752347459606948,0.7573961988354838,1
1.0185092546273136,-0.7470301067119407,-0.7959450609378835,0.7560503423131543,1
1.0195097548774386,-0.8631804711451225,-0.8801384750089921,0.756991703890688,1
1.0205102551275638,-0.450821561295703,-0.4663117055141697,0.7711404067029594,1
1.0215107553776888,0.9910507104116444,0.9457080820563097,0.7637417881125192,1
1.0225112556278138,0.6548983174152304,0.6435586374112119,0.7379155673726583,1
1.023511755877939,1.3394031102082937,1.3135083305321231,0.7260432092845563,1
1.024512256128064,0.8928403803790417,0.8470582232012822,0.7331220943806154,1
1.025512756378189,0.8547952885029938,0.8905542609144192,0.7303003622326646,1
1.0265132566283142,0.6546389840443056,0.5671190458779181,0.7292440720668943,1
1.0275137568784392,0.01202647554982006,0.10730911222703249,0.7358666115489171,1
1.0285142571285641,1.1909549913734492,1.1059416584833177,0.7593976364780632,1
1.0295147573786894,-0.2735151754583859,-0.17087557353663463,0.7730149928993097,1
1.0305152576288144,0.22383280932295735,0.2138008499595203,0.7462753973194866,1
1.0315157578789393,0.14138991642019283,0.189186491081858,0.7511194824339035,1
1.0325162581290646,-0.38690496632256033,-0.27469225608715725,0.7369434485654569,1
1.0335167583791895,-1.148677854633865,-1.1817948918879275,0.7023202151254849,1
1.0345172586293145,-1.819519007749367,-1.594946425717943,0.7224863065844451,1
1.0355177588794398,-0.0752053055133135,-0.1639374685702671,0.7140989090399184,1
1.0365182591295647,-1.321348638492726,-1.046691549985752,0.7106241564789331,1
1.0375187593796897,-1.3835779567712938,-1.4694969185310138,0.7049537946257894,1
1.0385192596298147,-1.4294696581075612,-1.181828133500378,0.7077638919619004,1
1.03951975987994,0.38391077026339715,0.35560872103393815,0.7029177594621611,1
1.040520260130065,0.21797769176303292,0.3857461630375645,0.7268289603364898,1
1.04152076038019,0.1370236996752529,0.1904440611807121,0.7363468037241834,1
1.0425212606303151,1.2341540214059454,1.3180820066081764,0.7449246305504739,1
1.0435217608804401,0.45977834053331856,0.5772377844120001,0.729710523725391,1
1.0445222611305651,0.8629625154607659,0.9004723810267845,0.7168318509544542,1
1.0455227613806903,0.9076827608930844,1.056204131288919,0.7003433900109407,1
1.0465232616308153,0.13453249672375,0.16575583652349196,0.6925416099552393,1
1.0475237618809403,0.19304396330473872,0.35025144231373034,0.6778068125001611,1
1.0485242621310655,1.29905239658836,1.3536649327484653,0.6831961301506512,1
1.0495247623811905,0.7105271631977863,0.859003260722097,0.6686601655309369,1
1.0505252626313155,-0.2585096043982813,-0.16048247833697732,0.672402243482383,1
1.0515257628814407,-0.6991195082352644,-0.5704792491782869,0.6858767891240997,1
1.0525262631315657,-1.8484666213254548,-1.70389589611675,0.6881682887751384,1
1.0535267633816907,-1.559390274049541,-1.4576908409347742,0.6963752114882058,1
1.054527263631816,-0.5312694328644352,-0.34011315523873054,0.6814022598601376,1
1.055527763881941,-1.1812221158915843,-1.1243404450304628,0.6839201009169183,1
1.056528264132066,-0.39836569121850457,-0.15791232538602948,0.6853000680359594,1
1.0575287643821911,-0.0035065064283340552,0.0012569345000108534,0.6945628529191175,1
1.0585292646323161,-1.6692034394606718,-1.4058635693325705,0.7004301301101832,1
1.059529764882441,-0.004120713553741329,-0.015342535354267384,0.6864758102857271,1
1.060530265132566,-0.3340982323154619,-0.1048036600791723,0.6850677974455962,1
1.0615307653826913,0.40103093303741666,0.4257240591212098,0.7158944134113653,1
1.0625312656328163,0.8046037053312036,0.9642763588230008,0.7152147260605951,1
1.0635317658829413,1.1634121776697592,1.2411760239458816,0.7061531372876497,1
1.0645322661330665,1.790194087167794,1.8990062963893521,0.696391782583703,1
1.0655327663831915,0.4556278316387604,0.5570867967443232,0.6981238043721038,1
1.0665332666333165,0.46231714769882876,0.5786722851322108,0.6983405873307725,1
1.0675337668834417,0.13808493514073705,0.21452940470655021,0.7175099004019193,1
1.0685342671335667,-0.027310384749421657,0.15201142239104892,0.7129308507988186,1
1.0695347673836917,-0.0754214559165508,-0.05571542783331432,0.7156880407168057,1
1.070535267633817,-0.33812094274809334,-0.0762227027290972,0.7356430792265279,1
1.071535767883942,0.24397328429516407,0.20896820930239962,0.7346174895923826,1
1.0725362681340669,-1.234060038224297,-0.9130245199357123,0.7427574785454473,1
1.073536768384192,-0.5256138130026915,-0.5867100995464063,0.7582113448264539,1
1.074537268634317,-1.369753433132396,-1.0341621207735912,0.7431997913119504,1
1.075537768884442,-1.5016605136569736,-1.564281543000254,0.7417444348099415,1
1.0765382691345673,-1.0000656720157255,-0.6816940284298478,0.7465291652777681,1
1.0775387693846923,-0.45743583128622234,-0.5176552478804034,0.7508352905198812,1
1.0785392696348173,-0.6421963288366395,-0.35729407707990724,0.7425271647288753,1
1.0795397698849425,-0.23997742701096691,-0.296767626375675,0.721243228128781,1
1.0805402701350675,-0.5174826101460543,-0.2827992059115759,0.7344164731389209,1
1.0815407703851925,0.6932373050837005,0.6523257352397587,0.7381566667731464,1
1.0825412706353177,0.39960858243196357,0.5680561156404498,0.7414531016868315,1
1.0835417708854427,0.4955456336961288,0.4840789006651171,0.7463258926125322,1
1.0845422711355677,1.4220621866371206,1.5245457837113932,0.7247108157472386,1
1.0855427713856927,1.6854925805441368,1.7052682668587222,0.7322057773203681,1
1.0865432716358179,0.9606746349982749,1.0127071824472496,0.7322554849511214,1
1.0875437718859429,0.9719153810559173,1.0164174798837482,0.740732953655613,1
1.0885442721360679,0.6697980596960411,0.6937603983030367,0.7444029823282942,1
1.089544772386193,-0.4911642108264147,-0.44220981045397567,0.7492937296098805,1
1.090545272636318,-0.4234222932412821,-0.3965853109710061,0.7205631003120618,1
1.091545772886443,-1.168720325215355,-1.1489097147380578,0.7147865321522878,1
1.0925462731365683,-1.1407355175560634,-1.089129526453137,0.7226387415702265,1
1.0935467733866933,-0.6852005814965476,-0.7150972803113473,0.7325425055517116,1
1.0945472736368183,-1.9646084817452807,-1.8982243065128974,0.7310143669052298,1
1.0955477738869435,-0.928334558635028,-1.0049246495816577,0.7387523144205499,1
1.0965482741370685,-0.6297494613916825,-0.5727552841767239,0.7407384786397222,1
1.0975487743871934,-0.9986049211028609,-1.1229447563640607,0.7498519657256256,1
1.0985492746373187,0.5608901150247575,0.6030872570232904,0.7482989417308196,1
1.0995497748874437,0.9687474508491463,0.7862354356216533,0.7500892632375049,1
1.1005502751375686,-0.4256743771741396,-0.3997190017283072,0.7482108700707102,1
1.1015507753876939,1.0172156550154017,0.7857855112839416,0.7405837530673878,1
1.1025512756378189,1.290249763169734,1.2884896065664482,0.7565888995650416,1
1.1035517758879438,0.6539300152707579,0.39349401093006947,0.7590467926995101,1
1.104552276138069,1.0309134552789156,0.9987754057457244,0.7623347643636386,1
1.105552776388194,1.5835339819289507,1.3113501267417362,0.768871059717812,1
1.106553276638319,0.3877740778208691,0.3227340710702834,0.769702647766161,1
1.1075537768884443,0.5032114822191993,0.24489648078504617,0.7643463043827167,1
1.1085542771385692,0.4340420851475437,0.3251097260678895,0.7776100395091855,1
1.1095547773886942,0.6111553438184638,0.390090614010737,0.7833569075661235,1
1.1105552776388192,0.05144367437303596,-0.10728904161683567,0.7752510390755677,1
1.1115557778889444,-0.6712181558700439,-0.8495974943457912,0.7663840510682552,1
1.1125562781390694,-0.9461313140393107,-1.1477777924570618,0.771321109878611,1
1.1135567783891944,-1.3355612924805966,-1.4857133880252005,0.7762008526483358,1
1.1145572786393196,-0.2339661594662097,-0.4624748314984174,0.7637190275026429,1
1.1155577788894446,-0.12637264141183702,-0.2682583887556219,0.7555925388816161,1
1.1165582791395696,-0.7248709449164773,-0.9712827560291379,0.7488148867035447,1
1.1175587793896948,-0.5712610308194802,-0.7097176037808075,0.742387589028422,1
1.1185592796398198,0.19373727010019792,-0.07560449006696729,0.7400663673135809,1
1.1195597798899448,0.5663576531016219,0.44261280359931954,0.7327466224628504,1
1.12056028014007,0.475999925866179,0.1755309136877088,0.7164628955891659,1
1.121560780390195,0.7567149079036877,0.6646425635975722,0.70615950435157,1
1.12256128064032,1.164727905619035,0.8353733201954028,0.7029641681652482,1
1.1235617808904452,0.7291128000371616,0.6762261748806804,0.6987883841743443,1
1.1245622811405702,1.2731369926702392,0.9402424624338614,0.6921293673406089,1
1.1255627813906952,1.2090251963028422,1.1829256928341252,0.6850205789858358,1
1.1265632816408204,1.7720654571015628,1.481951353312539,0.6839487482103728,1
1.1275637818909454,0.6685087270037127,0.6405499046038388,0.6809360769811735,1
1.1285642821410704,0.7175806847978343,0.5216926602863283,0.6683710848303394,1
1.1295647823911956,-0.565034810677359,-0.6235823940843428,0.6818460621068093,1
1.1305652826413206,-0.24909599021999215,-0.324378608329023,0.6718568949985649,1
1.1315657828914456,0.4717476134269718,0.3845085660675379,0.6620862917241117,1
1.1325662831415706,-1.2480199966371226,-1.2312428719638884,0.6814046790686239,1
1.1335667833916958,-0.6979579536482872,-0.7714223035120229,0.678194921608487,1
1.1345672836418208,-1.1624115503450096,-1.1192523591836054,0.677985829803053,1
1.1355677838919458,-1.2460997698163534,-1.2619188664930998,0.6757183535356274,1
1.136568284142071,-1.2775232841015376,-1.2595601229650342,0.6859321994054185,1
1.137568784392196,-1.3111033769644018,-1.2604046183699864,0.6723983658659497,1
1.138569284642321,-0.048717312369518984,-0.06966914101838867,0.649646561402742,1
1.1395697848924462,-0.05794004504763038,0.03588537940263958,0.6320616542397751,1
1.1405702851425712,0.10438185401126608,0.05770270206743622,0.6459436569721547,1
1.1415707853926962,0.7237711847523087,0.8275448309819218,0.6587085067819034,1
1.1425712856428214,1.0201660872615665,0.9730684407110791,0.6559387217168637,1
1.1435717858929464,0.2711679103345036,0.3491100377748274,0.6487755393951976,1
1.1445722861430714,1.0950076435900025,1.0840379628286696,0.6488689282343835,1
1.1455727863931966,0.4722412199610344,0.4897550877018642,0.658069846659307,1
1.1465732866433216,0.36016829391738614,0.41298847486063744,0.6578778661873025,1
1.1475737868934466,0.9637759957446259,0.914155556818866,0.6668795364537957,1
1.1485742871435718,-0.37691437077386963,-0.2701364153365192,0.6526207104243086,1
1.1495747873936968,0.5207916616914487,0.43079601788300104,0.6440994080268799,1
1.1505752876438218,0.21717017229023577,0.34612746295515373,0.6534985930482916,1
1.151575787893947,-0.5278486831054072,-0.6351519498239767,0.6434811482361386,1
1.152576288144072,-0.793130281530433,-0.6602399990247394,0.6192853697028384,1
1.153576788394197,-0.9412179316267248,-1.0672428747535705,0.6259985763634701,1
1.1545772886443222,-0.6300121608507981,-0.49931705033350804,0.6298358669595105,1
1.1555777888944472,-0.6731957613917785,-0.8228199630190736,0.6320651724997465,1
1.1565782891445722,-1.3975008912613367,-1.2886534382958943,0.6352149301271341,1
1.1575787893946972,0.2407093492800787,0.08440860777819531,0.6330381556084967,1
1.1585792896448224,-0.3631765009245849,-0.3146551357961959,0.6184193009222457,1
1.1595797898949474,-0.14124389484062932,-0.27671680063945514,0.6186696646059369,1
1.1605802901450724,0.6553582624273804,0.6179813351063861,0.6041180781595629,1
1.1615807903951976,0.27795778662871784,0.17290581737235522,0.5799795336294513,1
1.1625812906453226,0.13037016813550595,0.010187569296675997,0.573721953201561,1
1.1635817908954476,0.6848463072743444,0.6064680298768564,0.5662330995172512,1
1.1645822911455728,1.3423305708073938,1.1565749681174005,0.5709106283583906,1
1.1655827913956978,0.963902389542036,0.906500879243053,0.5818673980516048,1
1.1665832916458228,1.0613747463926348,0.8327935027771494,0.5823642888367844,1
1.167583791895948,0.3919387631623119,0.35155848769750375,0.5835538661071887,1
1.168584292146073,0.17341891656631792,-0.0802739320262566,0.5674280554359789,1
1.169584792396198,0.9226388985043501,0.9026587248454999,0.5761618168619698,1
1.1705852926463232,0.4338541431705692,0.16593189008748604,0.5833554396929475,1
1.1715857928964482,-1.1109683003430295,-1.1147260769222371,0.589652764055716,1
1.1725862931465731,0.13758815250754386,-0.12243201872104892,0.5922278679106469,1
1.1735867933966984,-0.2393674240330026,-0.25016105500924735,0.5873492411129221,1
1.1745872936468233,-1.1848069095405076,-1.410201713504439,0.5865886598301762,1
1.1755877938969483,-0.6405795852081455,-0.6820534522264703,0.5906426021574396,1
1.1765882941470736,0.4431950873826479,0.2721624266475306,0.5974008478253096,1
1.1775887943971985,-0.8821885097367015,-0.9762102376354229,0.5891323626656718,1
1.1785892946473235,-0.6142730184889699,-0.7135571900883564,0.5842529662331213,1
1.1795897948974485,0.8923860690897173,0.7350476710961422,0.5825388033732829,1
1.1805902951475737,0.5102176850842695,0.4818664896984087,0.5929025991949963,1
1.1815907953976987,0.4816734147165071,0.2756698401356591,0.6016276796111005,1
1.1825912956478237,0.47409464220904807,0.5003001376513398,0.590755367826114,1
1.183591795897949,1.0132235757954482,0.7839404876965804,0.5923214286445734,1
1.184592296148074,0.32767782828072756,0.39167303686490307,0.6014213856947406,1
1.185592796398199,0.17272833070071003,-0.05499163998752024,0.6214863295064726,1
1.1865932966483241,0.8603990123182036,0.9466811015705223,0.6115300213269983,1
1.1875937968984491,1.0857558416391055,0.8859619341544955,0.6244955090169372,1
1.1885942971485741,-0.3852285811548009,-0.3035455830753597,0.6353342181255174,1
1.1895947973986993,0.7181512100274798,0.5837238640633494,0.6464231507857663,1
1.1905952976488243,-0.12044618092343894,-0.08254724132641104,0.6473309637848094,1
1.1915957978989493,-0.8447203346519632,-0.8870236945021438,0.6446619683872656,1
1.1925962981490745,-0.14161645141306023,-0.16677790715058777,0.6398592802559149,1
1.1935967983991995,-0.8255094748977246,-0.7857981090743681,0.6461510717558843,1
1.1945972986493245,-1.361580977951834,-1.443719104377557,0.6526752470364195,1
1.1955977988994497,-0.8946372233026043,-0.8046213058402909,0.6395614017288895,1
1.1965982991495747,-0.419020291980551,-0.5417436676071823,0.6397153089148445,1
1.1975987993996997,-0.7662509382692574,-0.670224216932625,0.6222704972838806,1
1.198599299649825,0.3630214151117693,0.23210735119922382,0.6355424624260646,1
1.19959979989995,-0.6808429154583872,-0.633493134246174,0.6435517292242156,1
1.200600300150075,-0.5822027943491125,-0.6840397463486549,0.623910543484967,1
1.2016008004002001,0.2587404332984167,0.22172769184208652,0.6390498357566067,1
1.2026013006503251,0.4744710184903198,0.41627017739720845,0.6454513885796831,1
1.20360180090045,1.1017235186974,0.9815347317616527,0.6318202028376965,1
1.204602301150575,1.039268019700951,1.0175068414191786,0.6368166875210927,1
1.2056028014007003,1.4396515123992042,1.259073983824285,0.6249187096666687,1
1.2066033016508253,0.7406847784773936,0.7450378490465717,0.6171113414976558,1
1.2076038019009503,0.38058165928494936,0.16271164870116006,0.6160669537939623,1
1.2086043021510755,0.7411428160230076,0.7696529883045554,0.6087277237507039,1
1.2096048024012005,1.5212558128335243,1.2799639912260645,0.6139852219024732,1
1.2106053026513255,0.06365330018499873,0.12016592613266727,0.6207510294992288,1
1.2116058029014507,-0.559422094090951,-0.8211802018692937,0.6472060185759676,1
1.2126063031515757,-0.647394825216298,-0.5521230247256882,0.6540273233552317,1
1.2136068034017007,-0.8652842886910816,-1.160914662889302,0.6372138165741101,1
1.214607303651826,-1.3517622191370655,-1.2019656180695522,0.6399358184963782,1
1.215607803901951,-0.4268777534687892,-0.7730511093658663,0.6493306434880257,1
1.2166083041520759,-0.8019480661480932,-0.5926590962096066,0.6552829548752012,1
1.217608804402201,-0.2658850161931912,-0.6661480626959781,0.6424543446915711,1
1.218609304652326,-0.6656102816118417,-0.40648269605302356,0.6443730044169277,1
1.219609804902451,0.687958174790808,0.24696645946899598,0.6500333329108867,1
1.2206103051525763,-0.11461496181611783,0.173627249385231,0.6357937060767797,1
1.2216108054027013,0.6958627698971765,0.24248549537404732,0.6283825450854282,1
1.2226113056528263,0.4929510933211889,0.7860302758302502,0.645383907942351,1
1.2236118059029515,1.0791964234293472,0.6506243949167929,0.6540811737756497,1
1.2246123061530765,0.15672557919673225,0.42814242654201,0.6548553936579271,1
1.2256128064032015,1.7958765003160242,1.439018065808455,0.6438314377551037,1
1.2266133066533267,0.3714411625438697,0.5922400678013524,0.6411714186519251,1
1.2276138069034517,0.5394488789711848,0.29465095053609286,0.6437883199352693,1
1.2286143071535767,0.80109363359144,0.9633814242581651,0.6451112129415234,1
1.2296148074037017,0.26768148204328135,0.14014877837494105,0.6404061078624784,1
1.2306153076538269,-0.2171438412858013,-0.09149808124776776,0.6280411643330406,1
1.2316158079039519,0.25752078026461067,0.22345045495097982,0.6237735720777177,1
1.2326163081540769,-0.25375700064646817,-0.1333386354884219,0.6304485404358282,1
1.233616808404202,-1.0681303113337755,-1.0468153952850454,0.6423627560213028,1
1.234617308654327,-0.8777016619646227,-0.7299634167026816,0.6274717332427013,1
1.235617808904452,-1.410075479384062,-1.3777410938244583,0.6052968687800174,1
1.2366183091545773,-1.4825866223207775,-1.28774634053373,0.6046663643301642,1
1.2376188094047023,0.027913689866295166,0.04528659509841773,0.6014285225956308,1
1.2386193096548272,-0.6722866164706514,-0.4396456791887534,0.5979854083538575,1
1.2396198099049525,-1.0547587134428291,-1.0534651136457371,0.5841605303608411,1
1.2406203101550775,-0.6269290790806541,-0.38016281068518626,0.590266154200038,1
1.2416208104052024,0.2502898598426958,0.24559318532063906,0.610137297312413,1
1.2426213106553277,0.02872985376507986,0.2627108934184153,0.6216237305800478,1
1.2436218109054527,1.0581315093167811,1.0688145337723183,0.6268456976134236,1
1.2446223111555776,0.5373257190285597,0.731737762672203,0.6213367150842397,1
1.2456228114057029,0.38763867318972256,0.4340632562727132,0.6167487258634241,1
1.2466233116558278,1.2465232956277257,1.3918118104533272,0.6172700762030248,1
1.2476238119059528,1.0185875952682721,1.1050875085975576,0.6288908616630169,1
1.248624312156078,0.16984585174720107,0.27081834531309634,0.6307448418700626,1
1.249624812406203,-0.2071429757353303,-0.08229533910500275,0.6492240933449679,1
1.250625312656328,-0.6107366690744418,-0.5510387911897217,0.6499337437064562,1
1.251625812906453,-0.511224953279622,-0.35257275600929916,0.6349302236520104,1
1.2526263131565782,-0.5069479874775691,-0.48241482770991306,0.6522499560625721,1
1.2536268134067032,-0.9182282734312549,-0.746279477809405,0.6611585295287524,1
1.2546273136568282,-0.41016804208561364,-0.39925966494728526,0.6423585457552757,1
1.2556278139069534,-1.1910163268215486,-1.045694371058142,0.644238098102326,1
1.2566283141570784,-1.1086256732256237,-1.0787862669520996,0.6493440442944508,1
1.2576288144072034,-0.8357991973721586,-0.7584224279748895,0.6616187571338056,1
1.2586293146573286,-0.09993376816500105,-0.02510184937448412,0.6633996610498847,1
1.2596298149074536,0.1838720443915732,0.17122076809186654,0.6495884799556894,1
1.2606303151575786,-0.0392552988787358,0.08864070364000032,0.6615057601892864,1
1.2616308154077038,0.755080348046445,0.6592881151426303,0.6591743556376288,1
1.2626313156578288,0.2092518581717212,0.3799673126370224,0.6508259325716755,1
1.2636318159079538,0.6198045443191513,0.469670763238482,0.657073411754399,1
1.264632316158079,1.3099646745493343,1.5072468100293972,0.6757524662620095,1
1.265632816408204,1.9340373986850206,1.7666082649846184,0.669768569782823,1
1.266633316658329,0.9635480339807799,1.1669807595913477,0.6720027089498046,1
1.2676338169084542,1.0671517942759208,0.9272464143647684,0.6704236888559834,1
1.2686343171585792,-0.31098558402921095,-0.13103356959383294,0.6917996415531205,1
1.2696348174087042,0.08845638923186094,0.017566998428216962,0.6955955754472041,1
1.2706353176588294,-0.33376695099275333,-0.1996947663652594,0.6891302660786147,1
1.2716358179089544,-0.8318252693561938,-0.8235247683736503,0.7140379931114509,1
1.2726363181590794,-0.9734131278946347,-0.8787292861825415,0.7141440038605746,1
1.2736368184092046,-1.6293959085635494,-1.5745869686620557,0.7095526630771681,1
1.2746373186593296,-0.5500317236684731,-0.4636249446164178,0.7118916809418828,1
1.2756378189094546,-0.7388626205707127,-0.6888420630861627,0.714019959602712,1
1.2766383191595796,-1.5609002319137681,-1.4582266883294377,0.7069050998063703,1
1.2776388194097048,-0.7524576608629555,-0.7400796238451155,0.7313787532062627,1
1.2786393196598298,-0.09480201047786407,0.023382235584329836,0.7403358206656757,1
1.2796398199099548,-0.20327654048170182,-0.23412639572745558,0.7314896062244903,1
1.28064032016008,-0.4614966405674661,-0.3467953908540068,0.7556122885468054,1
1.281640820410205,0.892889671165274,0.8371860969187197,0.7510832002805411,1
1.28264132066033,0.14069815865056134,0.22238383129237538,0.7491955673788013,1
1.2836418209104552,0.40773139384592727,0.3562563405752809,0.7638954469767003,1
1.2846423211605802,1.2925361502777186,1.3258274283825342,0.7812809740115084,1
1.2856428214107052,1.2972668763028676,1.261170866241575,0.7832726714238892,1
1.2866433216608304,0.8708250480173495,0.870325187236065,0.7895722453050213,1
1.2876438219109554,0.3891349483168598,0.3576605542345976,0.8044564675166948,1
1.2886443221610804,1.37774947105084,1.3735984045692748,0.8209708397000861,1
1.2896448224112056,0.7970109472262754,0.7542702896864106,0.8314640279401045,1
1.2906453226613306,-0.501504784467018,-0.491869769034268,0.8178432189270785,1
1.2916458229114556,-0.11429300256826652,-0.1666421806295698,0.8000670263117117,1
1.2926463231615808,-1.3438738603283804,-1.3315085282752714,0.7960628514071952,1
1.2936468234117058,-1.2071226867239895,-1.2586112284765016,0.7934359211005977,1
1.2946473236618308,-0.4121890029360933,-0.4084722942427411,0.7986476638501221,1
1.295647823911956,-1.6179958396831,-1.6794496079145247,0.7987481664612105,1
1.296648324162081,-1.3970959469004942,-1.397112347909513,0.8068885779543349,1
1.297648824412206,-0.7875560643217633,-0.8755204694272315,0.8055444473720403,1
1.298649324662331,-0.3771272255604718,-0.38776923854883116,0.8074329009503046,1
1.2996498249124562,0.2885268394518565,0.1887092721464641,0.7872955408392677,1
1.3006503251625812,-0.1383414466829648,-0.19529580137263075,0.8154137567461773,1
1.3016508254127062,1.6402838104207986,1.5762554260039128,0.8326628964402725,1
1.3026513256628314,1.073714876206048,0.9302682006805697,0.8180016867463829,1
1.3036518259129564,0.29308655759030744,0.3039687557501409,0.8186274135974106,1
1.3046523261630814,1.8324261823312926,1.605393781063037,0.8236421464068775,1
1.3056528264132066,0.7398609750409766,0.819239957744927,0.8290508953186186,1
1.3066533266633316,1.2469480511787059,0.9844046218651028,0.8336633500467511,1
1.3076538269134566,1.3754711105786304,1.4934164078698422,0.8318798613228882,1
1.3086543271635818,1.1407903801498895,0.8943782011148933,0.8445934620968233,1
1.3096548274137068,0.14274620359920953,0.27080563871090996,0.8584072523791785,1
1.3106553276638317,-0.21589846398010526,-0.4036193976966048,0.8631352068601,1
1.311655827913957,-1.5076297971961443,-1.4034992257262973,0.8523562864719366,1
1.312656328164082,-1.114162891922785,-1.2056859218065914,0.8367782606418168,1
1.313656828414207,-1.0368903499217088,-0.9943301752393997,0.8361407063967297,1
1.3146573286643322,-0.8528827643434687,-0.8262063593780973,0.8140025715775061,1
1.3156578289144572,-0.8342372942545893,-0.877798634216284,0.8048131229663665,1
1.3166583291645821,-1.1083482666766293,-0.9667720143655241,0.8023829224218039,1
1.3176588294147074,-0.6653712936468041,-0.7958998990348933,0.8057098890193188,1
1.3186593296648323,-0.6199964077936664,-0.3916207070700491,0.8017875181809949,1
1.3196598299149573,0.16831215461424692,-0.02259212898263291,0.798537575576981,1
1.3206603301650826,-0.8738757073455379,-0.606715341021479,0.8014586775099037,1
1.3216608304152075,0.9593410778185159,0.7563182392589238,0.7863889895052852,1
1.3226613306653325,0.7145560681255817,0.9731519650957556,0.7734500588099097,1
1.3236618309154575,0.7426059986640561,0.567718963110211,0.7659998454939927,1
1.3246623311655827,1.635570406005868,1.8695357399619001,0.7638373009732609,1
1.3256628314157077,1.6838931587549852,1.5512990477909154,0.7632063633154725,1
1.3266633316658327,0.509877814002162,0.7251662036349571,0.7754151094166217,1
1.327663831915958,0.8534719461422755,0.7713659663965116,0.7554609729004012,1
1.328664332166083,0.07535819782630993,0.27411887605767127,0.749002532768173,1
1.329664832416208,-0.48072345592842236,-0.5045638413145074,0.7679847246229087,1
1.3306653326663331,-0.7591378026255595,-0.5774181272606236,0.751699098910096,1
1.3316658329164581,-0.7816696873879705,-0.7480116607255707,0.7593323755875628,1
1.3326663331665831,-1.0188487568981248,-0.8580638699891407,0.744850606076299,1
1.3336668334167083,-1.1356160548673793,-1.0469458546930426,0.7292244884466232,1
1.3346673336668333,-1.6887740675307255,-1.5622251524286104,0.7370206077371269,1
1.3356678339169583,-0.8658846910813183,-0.7222248468334027,0.7351670769350539,1
1.3366683341670835,0.01280949826768707,0.09142389573007631,0.736280342143964,1
1.3376688344172085,-0.5182315833583797,-0.3257828419802437,0.7132237052766316,1
1.3386693346673335,-0.29566050566815233,-0.2666916636080955,0.6934215708773099,1
1.3396698349174587,0.06501015527293667,0.2947978591294347,0.7090761094154908,1
1.3406703351675837,0.38471094507437187,0.3703597418061294,0.7198596247772927,1
1.3416708354177087,0.07507373515080401,0.3329905105053205,0.716157723591773,1
1.342671335667834,1.1814359938548165,1.135389986359073,0.7068192606729365,1
1.343671835917959,0.815607314432239,1.0961140982758082,0.6997585243042743,1
1.344672336168084,0.6227460151840852,0.554527390888875,0.7132443278601581,1
1.3456728364182091,0.6174510397430739,0.9259652076835976,0.721391754240643,1
1.346673336668334,0.8411690973829737,0.7501658131407433,0.7242425473678438,1
1.347673836918459,0.15692225747631283,0.5030098036313798,0.7231592241744137,1
1.348674337168584,0.3946550370505116,0.27964201251223575,0.7061281701328499,1
1.3496748374187093,-0.5387810617449753,-0.15716238925704729,0.7097792901954498,1
1.3506753376688343,-0.6716042951111059,-0.8057331064300933,0.6842369904660158,1
1.3516758379189593,-0.9761166718317507,-0.5785486001928817,0.672526519314082,1
1.3526763381690845,-0.46975973732016324,-0.6073461940691642,0.6939056919435459,1
1.3536768384192095,-1.6222224434143673,-1.2530783484869241,0.6935460365384346,1
1.3546773386693345,-0.6844743821812633,-0.791112495422406,0.6886236695425896,1
1.3556778389194597,-1.4763826879680568,-1.200903791618271,0.6876765150344585,1
1.3566783391695847,-0.22417421980539187,-0.26031614630191513,0.6865807366918087,1
1.3576788394197097,-0.8417436305696826,-0.7121105263860446,0.6755603598795644,1
1.358679339669835,-1.3270833266485889,-1.284184165640074,0.6684154244691964,1
1.3596798399199599,0.1947117297281035,0.17812909860726245,0.6696171038375583,1
1.3606803401700849,0.3764795925493847,0.4592826581421061,0.6533458705118365,1
1.36168084042021,0.3630587472132447,0.25066738235967717,0.6453476464655645,1
1.362681340670335,0.15822325023310801,0.21557920184051144,0.6599496493486396,1
1.36368184092046,1.909643123566032,1.7770571021484434,0.6582913838422343,1
1.3646823411705853,1.3999591140117809,1.3653821274681932,0.6539863916665686,1
1.3656828414207103,0.7731602352268729,0.6927035749402943,0.6580186322876884,1
1.3666833416708353,0.6660034660257059,0.49984886842370596,0.6532490745827636,1
1.3676838419209605,0.43308558518925566,0.4428630806017784,0.6516448405986036,1
1.3686843421710855,1.3625131609760959,1.0659108848642433,0.6359639277185334,1
1.3696848424212105,0.33025293504889697,0.4299634480068779,0.6309993345130098,1
1.3706853426713355,-0.3503773571669938,-0.7492549973815146,0.6378446264887833,1
1.3716858429214607,-0.8653751789647585,-0.7021520795874224,0.6449598464281695,1
1.3726863431715857,0.5791127715109421,0.12159926301757035,0.6524220245856021,1
1.3736868434217107,-0.9290411815520337,-0.7502749662402073,0.646215544191228,1
1.3746873436718359,-0.12804854174201108,-0.5924207534901973,0.6488694456602948,1
1.3756878439219609,-1.1096199618060292,-0.9657754901942281,0.6630864748615765,1
1.3766883441720859,-1.3568099329881966,-1.7941248351081478,0.6659674824752478,1
1.377688844422211,-0.8373125905931309,-0.7533831961409436,0.6773443724657536,1
1.378689344672336,0.43004907142314197,0.02800052626541727,0.6802088166689553,1
1.379689844922461,0.43868412388614086,0.45720611590795196,0.6855321943680872,1
1.3806903451725863,0.8852081619054728,0.5226292101281336,0.6926134388838158,1
1.3816908454227113,0.24618930283775237,0.19699282011335395,0.6732576509315463,1
1.3826913456728362,0.8138868923056402,0.5008170994707455,0.6758843234250553,1
1.3836918459229615,1.2227231313606528,1.1070298231111444,0.6729245029858658,1
1.3846923461730865,1.000969976822282,0.7486634861425129,0.6517725995372934,1
1.3856928464232114,0.4996427217335395,0.32231364451980615,0.6559468281554384,1
1.3866933466733367,1.000167497006402,0.82152403988383,0.6588960496344491,1
1.3876938469234616,0.47696866850239505,0.24286956665997605,0.6637266796762739,1
1.3886943471735866,0.047162476415956,-0.05144205482481168,0.6778746520747784,1
1.3896948474237119,0.7706054193825649,0.49640989018542114,0.6588646788058765,1
1.3906953476738368,-0.09779610132922918,-0.13188185655989354,0.658089175624014,1
1.3916958479239618,0.03170140688172329,-0.2527788112973234,0.6493958971619269,1
1.392696348174087,-0.35523083218885715,-0.351344342355564,0.660664147873923,1
1.393696848424212,-0.5765347868255779,-0.8478844379996279,0.6762777305265312,1
1.394697348674337,-0.9175252647619012,-0.8967919896775454,0.6611170296881376,1
1.395697848924462,-1.0365622638030931,-1.2817262046529132,0.6544616513909419,1
1.3966983491745872,-1.1411346976694734,-1.123274721012372,0.6454542256832538,1
1.3976988494247122,0.3965539495441994,0.1926857839126697,0.6427569115398026,1
1.3986993496748372,-0.4069870975422359,-0.4123370859655793,0.6548259561512052,1
1.3996998499249624,-0.7170592399038374,-0.8680138493211325,0.6604817388736189,1
1.4007003501750874,0.9796084812092793,0.9497834871136647,0.6766279269005064,1
1.4017008504252124,1.249152720077699,1.1473930997181667,0.6622006786353863,1
1.4027013506753376,0.7900317633718851,0.7505684042292431,0.629632879004443,1
1.4037018509254626,1.5720962910175271,1.5192472334435263,0.626887668462959,1
1.4047023511755876,1.183500805188423,1.1451747212088312,0.63317237795073,1
1.4057028514257128,0.23192352176386588,0.2331143940048003,0.6240644345667251,1
1.4067033516758378,0.41481260949950327,0.3916497709773663,0.6191159808896054,1
1.4077038519259628,0.512788458470121,0.5641195044265662,0.6195502539582264,1
1.408704352176088,-0.23692100771394536,-0.22658899321145276,0.6366790114569565,1
1.409704852426213,-0.47453080672300024,-0.38684052951451503,0.6292703666713944,1
1.410705352676338,0.5427497792677289,0.6067437320926456,0.6292153594163861,1
1.4117058529264632,-0.5918799477183004,-0.4921988844509121,0.6357174768191022,1
1.4127063531765882,-1.0532269420552285,-0.9229778217657293,0.631152822920139,1
1.4137068534267132,-0.9258786348659536,-0.826558438703356,0.662878362132752,1
1.4147073536768384,-1.500683642264971,-1.3266069683750665,0.6626641185869965,1
1.4157078539269634,-0.37699276926491,-0.25803965183594124,0.6580243152594435,1
1.4167083541770884,-1.229736993962455,-1.0632614040235113,0.6601725155412405,1
1.4177088544272134,-1.3897949513909342,-1.2235422132321792,0.6763325298394082,1
1.4187093546773386,0.1882143658612463,0.3078758429445617,0.6770251978972689,1
1.4197098549274636,-0.1235922641309454,0.09719453314709636,0.6797897802535847,1
1.4207103551775886,-0.3563437262764713,-0.29888371199711117,0.6909111402329394,1
1.4217108554277138,0.29218470152467135,0.567286372414867,0.6800284131227138,1
1.4227113556778388,0.7366385473639185,0.7250514935876959,0.6680482990061951,1
1.4237118559279638,0.7057660260812803,1.0330641023608935,0.6729150922943132,1
1.424712356178089,1.4699887302759533,1.3997301548345757,0.6697179434267702,1
1.425712856428214,-0.11614630352068689,0.24441307693822564,0.654472767603071,1
1.426713356678339,0.264978898294262,0.16573485356097714,0.6573665686729717,1
1.4277138569284642,0.2495316759997162,0.6161226690667447,0.6408394438228758,1
1.4287143571785892,0.44311439623785404,0.342236000653971,0.6500769311667284,1
1.4297148574287142,-0.3528872708958632,-0.001808946707705733,0.6393740595862423,1
1.4307153576788394,0.36177979381665626,0.27520652627215214,0.6267504856436777,1
1.4317158579289644,-0.5382497598267658,-0.2187064735443988,0.6308623614363411,1
1.4327163581790894,-1.2868967639488071,-1.3572549744072488,0.6331324001615173,1
1.4337168584292146,-1.016657687446318,-0.7365975838330365,0.627847473869877,1
1.4347173586793396,-0.683760002237918,-0.7459131233920985,0.6368439564696647,1
1.4357178589294646,-0.873877630555554,-0.6474195146556142,0.6349000616389299,1
1.4367183591795898,-0.5480522760423742,-0.5932913449356728,0.6333939764943224,1
1.4377188594297148,-1.962478819230943,-1.8291465272906249,0.634298169660462,1
1.4387193596798398,-0.045020400629265156,-0.04072987753703157,0.644685408222724,1
1.439719859929965,0.26524354205554673,0.26441972380777523,0.6592046823596529,1
1.44072036018009,0.1705584528966126,0.23929187064974633,0.6489956141196555,1
1.441720860430215,1.1851087186361187,1.060779526205707,0.6459310250755779,1
1.44272136068034,-0.4813293108550909,-0.38597774524859313,0.6462934193188269,1
1.4437218609304652,1.1684760739798943,0.9861135558154202,0.6318584947331858,1
1.4447223611805902,1.3883426159881922,1.4528599886452813,0.6337967362779275,1
1.4457228614307152,0.914977865743779,0.7375898491416341,0.6334395401149158,1
1.4467233616808404,0.515047393184926,0.5242690151864345,0.6416940092276484,1
1.4477238619309654,0.5847836688478284,0.43602544831857737,0.6454917151096367,1
1.4487243621810904,0.2818427539805345,0.2524796425884256,0.6353054429955196,1
1.4497248624312156,0.24043497270537448,0.10575505813617325,0.6454557571253652,1
1.4507253626813406,1.115351554500922,1.094473540608703,0.6253372933455482,1
1.4517258629314655,-0.15833927384333202,-0.3210368572133766,0.6289413940800339,1
1.4527263631815908,-1.2539698088817934,-1.212442771421867,0.6503860486318377,1
1.4537268634317158,-0.7553691902625914,-0.9841036544192237,0.6599594853764382,1
1.4547273636818407,-0.6449793704615019,-0.5139960240806064,0.6656102795497361,1
1.455727863931966,-0.13491945431036012,-0.4387081836379658,0.6685055649405459,1
1.456728364182091,-0.7160385846529744,-0.5051517072361795,0.6634796263292045,1
1.457728864432216,0.055013375670700304,-0.29987318984455025,0.6863413880798744,1
1.4587293646823412,-0.9249282585742351,-0.6764131232008382,0.6770086346654769,1
1.4597298649324661,0.06293622108985471,-0.28964578797777274,0.6879239978347563,1
1.4607303651825911,-0.756828409990463,-0.5314394748622732,0.698199835506722,1
1.4617308654327164,0.8238595535541586,0.5374085427578927,0.6971821300588718,1
1.4627313656828413,1.2917343581851592,1.442339749878825,0.7048684157408913,1
1.4637318659329663,1.7260863016096004,1.5525221455498006,0.6753460568659435,1
1.4647323661830915,0.7605243970642899,0.8161535563751958,0.6761330067626183,1
1.4657328664332165,0.1521950926604806,0.10481019963206001,0.6736093169379911,1
1.4667333666833415,1.1064194789171073,1.0813811161859586,0.6695016766137493,1
1.4677338669334665,0.4397022182052988,0.5017959839501251,0.6560400591900208,1
1.4687343671835917,-0.3277530727391189,-0.40478792018164694,0.66992392171178,1
1.4697348674337167,-0.06668738156956333,0.07933472499651312,0.672059418656088,1
1.4707353676838417,-0.6069099997575409,-0.711607167633749,0.6549111202756974,1
1.471735867933967,-0.9501717703126911,-0.7571716665142733,0.6571829194521458,1
1.472736368184092,-0.12283893647494715,-0.2157378878818374,0.6591080287207811,1
1.473736868434217,-1.7095641466618936,-1.5405798088531724,0.6726102730499136,1
1.4747373686843421,-0.37538764754332754,-0.3938069658437299,0.6854481680971704,1
1.4757378689344671,-0.48771914502922287,-0.42461811366250996,0.7094639337170595,1
1.4767383691845921,-1.3386337198650473,-1.2379675811511646,0.7067317874020254,1
1.4777388694347173,-1.009886738805604,-1.0947945062967686,0.7021091323248182,1
1.4787393696848423,-0.8409899203155085,-0.6247757093188653,0.688467241410141,1
1.4797398699349673,0.07423609542687444,-0.14657321624820246,0.6777584646154381,1
1.4807403701850925,-0.3104283988898092,-0.023909595705087383,0.6785032502960442,1
1.4817408704352175,1.6610110725922824,1.3617945610778972,0.7021749790139631,1
1.4827413706853425,0.6031299541612969,0.890617303687364,0.7283659593263054,1
1.4837418709354677,1.5831456990291888,1.2823657422970065,0.739153528763346,1
1.4847423711855927,1.028605990101597,1.2597050069903883,0.730444858706742,1
1.4857428714357177,0.8446670791083941,0.5965342422630959,0.7276955740197978,1
1.486743371685843,0.8205273847054712,0.9776056290366516,0.7193058184016534,1
1.487743871935968,0.5308358966407191,0.3530285835432309,0.728481585532272,1
1.488744372186093,-0.01213022211397008,0.08007737237078044,0.7172134160857758,1
1.489744872436218,0.2454041469984831,0.1382352325764129,0.7100185357602764,1
1.490745372686343,-0.07179886756980056,-0.03390985443766026,0.718993023477159,1
1.491745872936468,-0.34738568100246214,-0.38769865501928175,0.740473278324142,1
1.492746373186593,-1.0698528584017302,-1.080170871336549,0.7368282035953888,1
1.4937468734367183,-1.1087865977447922,-1.0928884030308255,0.730584927650326,1
1.4947473736868433,-0.5456639552802314,-0.5954450696257577,0.7319513742397054,1
1.4957478739369683,-0.9018114020359569,-0.8511798079640486,0.7367620768685933,1
1.4967483741870935,-0.545162907150285,-0.6205244786181976,0.7338125901263524,1
1.4977488744372185,-1.1753648426526642,-1.1111376647751947,0.7257511148899672,1
1.4987493746873435,-0.7981079015869472,-0.8943743949512615,0.7284639962169042,1
1.4997498749374687,1.2285586839008975,1.3065433391306331,0.720496092904814,1
1.5007503751875937,1.0852489552064002,0.9578662248570027,0.7309799287915925,1
1.5017508754377187,-0.19364623812548187,-0.08990410335301184,0.7360978042576801,1
1.502751375687844,0.6881377066900858,0.5303482256880121,0.7303494655776721,1
1.5037518759379689,0.31818050843662626,0.4486648146840724,0.7184052429935193,1
1.5047523761880939,0.7234258615049971,0.55123530811091,0.7125679885288123,1
1.505752876438219,1.4649423129912926,1.622294619533914,0.7149482026272693,1
1.506753376688344,1.9878816501337826,1.814700722853296,0.7299775596199108,1
1.507753876938469,0.6520762384940035,0.8392516616965746,0.7270403886707408,1
1.5087543771885943,-0.07822391894069436,-0.2409796203706484,0.7462846030626533,1
1.5097548774387193,-0.36444481280949403,-0.15218155363055708,0.7323241457106242,1
1.5107553776888443,0.0267559412241046,-0.1119516939550469,0.7186021969540827,1
1.5117558779389695,-1.2135230490983226,-0.9961968992888306,0.7159499720423664,1
1.5127563781890945,-0.7818070792719113,-0.8789312775540179,0.7131359401738029,1
1.5137568784392195,-1.384657755170576,-1.1927781292748294,0.7088559874658313,1
1.5147573786893445,-1.2173177842614205,-1.264877942219323,0.7112400330537475,1
